质量_A
t	y	x	angle
0.0	80.42648174444139	-96.3076504114066	-0.6957797666347372
0.06666666666666606	86.9028638909158	-90.65802070451184	-0.7642527567015934
0.1333333333333321	92.82722755136774	-84.36590925874509	-0.8331138702546531
0.2	98.40691684516833	-77.99140952712469	-0.9006207990336728
0.26666666666666605	103.49707878418849	-70.89873349626441	-0.9701873043484939
0.3333333333333321	107.9327698691377	-63.49028317037869	-1.0390693786062466
0.3999999999999982	111.91457508284839	-56.3731112306408	-1.1041807012896565
0.46666666666666423	115.86008257937056	-48.061610466503	-1.1775758188804755
0.533333333333334	118.86819898164276	-39.842637146989546	-1.2473817127361875
0.6	121.44297737861189	-31.190902502006338	-1.319394402875882
0.6666666666666661	122.49748902487636	-22.31164058943	-1.3906317360103913
0.7333333333333322	123.74768441704714	-13.809502955983476	-1.45966210011884
0.7999999999999982	124.22056816550503	-5.832105125547287	-1.5238811846161873
0.866666666666666	124.42067984367941	2.4511540070469664	-1.5904943141171073
0.9333333333333321	123.8393677589927	11.345906035159828	-1.662159193950112
1.0	122.32978217627351	19.687750618762607	-1.7303679549458681
1.066666666666666	120.83038831674958	28.46320401650837	-1.8021420321833093
1.1333333333333322	118.07042542411955	36.50948596241676	-1.8706882858122316
1.2	115.34764585955918	44.56106996774031	-1.9394540145802759
1.2666666666666662	112.17147670140275	52.51995139854819	-2.0086911276703248
1.3333333333333321	108.15637942131116	60.37040755399721	-2.079895810257492
1.3999999999999981	103.44060651730615	67.8300730278338	-2.151195643958839
1.4666666666666643	98.35101043835903	74.97920981433344	-2.2221631639726414
1.5333333333333339	92.50812355036146	81.46427907552629	-2.292799116154661
1.6	86.66000000169288	87.59764841792185	-2.361575254684389
1.666666666666666	80.26050186737666	93.80983732222171	-2.433876135090595
1.733333333333332	73.22818667098682	99.56734859371113	-2.507459766638741
1.7999999999999983	65.15350320871676	104.76542627874414	-2.5852264524882163
1.866666666666666	57.42647463439198	109.53027392800436	-2.6586963366259013
1.933333333333332	48.735205730903544	113.40498961967546	-2.7357099834988325
2.0	40.12100279610513	116.84743262012239	-2.8108433504813584
2.066666666666666	31.29536284452638	119.45762189488437	-2.885371999222356
2.133333333333332	21.924820743955706	121.42753123295302	-2.962958414004606
2.2	11.913722904665974	122.82248181915452	-3.0448956383816173
2.266666666666666	1.4290856717766474	123.0923168981717	-3.1299833061942066
2.333333333333332	-8.59031928184254	123.02305782560666	-3.211306401452897
2.399999999999998	-18.797256814194498	122.10017529378479	-3.294342904084951
2.466666666666664	-28.934473997557234	120.16294999538036	-3.377887914097708
2.533333333333334	-39.2695915726099	117.35738536870826	-3.464496647790952
2.6	-49.68338025529238	113.42358378337553	-3.554451173893473
2.666666666666666	-60.13702335973994	108.52610691742188	-3.6475972940175323
2.733333333333332	-70.41780559325116	102.22304763727584	-3.7448058140125022
2.799999999999998	-79.67698458102086	95.68048937210256	-3.8359807492049294
2.8666666666666663	-88.0978740559699	88.17591959396987	-3.926548065224292
2.9333333333333322	-96.31015221631151	79.92958799137546	-4.0196693359850375
2.9999999999999982	-103.43177212455976	71.32129772520898	-4.108711452735206
3.066666666666666	-109.08412154623511	62.84844566214974	-4.189693427751723
3.13333333333333	-114.4300398243397	54.50203456387976	-4.267887571233111
3.1999999999999984	-118.39291249919984	45.62741015386928	-4.344540780883084
3.266666666666666	-121.41940182576582	36.594327386571535	-4.419659454221879
3.333333333333334	-123.73602517509926	27.359913176277473	-4.494775229941452
3.4000000000000017	-125.18103811341825	18.094894965791354	-4.56883350892129
3.466666666666666	-126.71562803802908	8.574035919528683	-4.644828357728629
3.533333333333334	-127.45542377997799	-0.2665725002085537	-4.7144804732659615
3.5999999999999983	-126.92884429687115	-9.406543165990229	-4.786362545210634
3.666666666666666	-125.28657495426046	-18.78692232381593	-4.861231592311558
3.733333333333334	-123.23357593400124	-27.907361559926017	-4.9350917561888075
3.799999999999998	-120.72924522272228	-37.07143822704893	-5.010312581067668
3.8666666666666663	-117.8764561233329	-45.87375947126134	-5.083522800377633
3.9333333333333305	-114.3322760635308	-54.612477448975824	-5.158009120353693
3.9999999999999982	-110.09600083437635	-62.733879808408574	-5.230314621965377
4.066666666666666	-104.83409217945132	-70.46370595049984	-5.304174660259897
4.13333333333333	-98.88267560117379	-77.86348059459942	-5.379419997765798
4.199999999999998	-92.90612272591807	-84.93981872673658	-5.453023780766885
4.266666666666666	-86.38166988706917	-91.53774768767119	-5.5267588838280295
4.333333333333334	-79.2366391097894	-97.41779038187269	-5.60034535493739
4.400000000000002	-71.9598236520012	-102.60738226504168	-5.671579118682009
4.466666666666666	-64.34329790519541	-107.55780816531046	-5.744075207059747
4.533333333333334	-56.72022300969047	-112.00122370672614	-5.81441089562697
4.599999999999998	-48.19262202914342	-115.67788307596629	-5.888442036684764
4.666666666666666	-39.80493426652947	-118.6592149935583	-5.959525656911375
4.733333333333334	-31.374874175439345	-121.29413834247794	-6.03006560478903
4.799999999999998	-22.48235786946043	-123.30365030105872	-6.102833246424756
4.866666666666666	-13.487533295869298	-124.45119811648851	-6.175230565425187
4.93333333333333	-4.381370236214025	-125.15108805638147	-6.248190952150499
4.999999999999998	4.857008162941611	-125.37159778547561	-6.321906840148495
5.066666666666666	14.304846104387707	-124.54782717534283	-6.397538474642079
5.13333333333333	23.44228943889675	-122.77732127673767	-6.47184796220314
5.199999999999998	32.12969591955084	-120.62724645284425	-6.543496900118454
5.266666666666666	41.03947722262592	-118.16430265922645	-6.617460423783312
5.333333333333334	49.899851614280124	-114.72427114056995	-6.693457302077942
5.400000000000002	58.3834434370624	-110.59913330418271	-6.7688899860187535
5.466666666666666	66.78895528128487	-105.85365792792686	-6.846055822406962
5.533333333333334	74.40278375601474	-100.33947086905823	-6.921231039758101
5.599999999999998	82.0973057244737	-94.34223601321128	-6.999294420990421
5.666666666666666	89.20984498748908	-87.70430105835669	-7.077093290850091
5.733333333333334	96.22529137277957	-80.15280014632572	-7.159457704579734
5.799999999999998	102.06586154139359	-72.44463612057518	-7.236719881309464
5.866666666666666	107.82536099125991	-63.66631923986597	-7.320608045387459
5.93333333333333	112.26419653544599	-54.661102843715526	-7.400871247914254
5.999999999999998	116.45970905627496	-45.112384753941456	-7.484414953183721
6.066666666666666	119.8126610846557	-35.406561121926075	-7.566643639602551
6.13333333333333	122.0913607697239	-25.075116816620266	-7.651418443715922
6.199999999999998	123.73930366102513	-14.40750710417069	-7.73806919660155
6.266666666666666	124.31406653268232	-4.2098448035156935	-7.820129981226115
6.333333333333334	123.95547035060554	6.307072820278222	-7.904819554520144
6.400000000000002	122.81785489139133	16.22780743151293	-7.985349739836554
6.466666666666666	121.27781849147595	26.549568201877264	-8.069497065285487
6.533333333333334	119.01168972571304	36.442391470830444	-8.151124526115769
6.599999999999998	115.11703955061148	46.260093428221126	-8.236084147203773
6.666666666666666	110.7285887039734	56.07913464394392	-8.322780525441567
6.733333333333334	105.26935274347147	65.26463691797437	-8.40896115512746
6.799999999999998	99.07966715847488	73.94888281550516	-8.49514765933627
6.866666666666666	92.63858043913615	82.23325136815288	-8.579947270385944
6.93333333333333	85.11533826600225	90.01526395794212	-8.667351195082777
6.999999999999998	76.77186001588143	97.13174808609051	-8.755924953978585
7.066666666666666	67.59466978006094	103.57177472409126	-8.846551889215977
7.13333333333333	57.52714686728018	109.3682748449462	-8.940551403920715
7.199999999999998	46.881202774484336	114.05873262868568	-9.034801960626977
7.266666666666666	35.94148646867325	117.8585557570234	-9.128782055715671
7.333333333333334	24.440286106753092	120.9589754294825	-9.225407855372568
7.400000000000002	12.262987055660233	122.74289112170686	-9.325200476547485
7.466666666666666	0.09759238341734999	123.58217370327247	-9.423988264648928
7.533333333333334	-11.920644405455278	123.11062990574283	-9.521305753737382
7.599999999999998	-24.047666422363363	120.92395329663464	-9.621082926646825
7.666666666666666	-35.626747729559156	118.30341336658762	-9.717286946554912
7.733333333333334	-47.001487097829795	114.68317844229091	-9.813736218051341
7.799999999999998	-57.70023654394777	109.42996237596549	-9.910010686731585
7.866666666666666	-67.86972830387913	103.97285609831329	-10.00309372435484
7.93333333333333	-77.42728487298837	96.82876408318975	-10.099293884036245
7.999999999999998	-86.32637792262813	89.03295585440242	-10.194742882141144
8.066666666666666	-94.3249633921348	80.39425075403392	-10.289739809959501
8.133333333333331	-101.90309442733405	71.60920422974391	-10.383026060023306
8.199999999999998	-108.08409716036158	61.65173501734591	-10.477199950377699
8.266666666666666	-113.62318066505986	51.00659115120925	-10.573627109184404
8.333333333333334	-118.00281557163612	39.57755513811071	-10.671969376044423
8.400000000000002	-121.39828841651502	28.342484518014885	-10.766215668666597
8.466666666666667	-123.66014568730634	16.57761610395869	-10.862310939013863
8.533333333333333	-124.58101752723019	4.5047201426857555	-10.959431073229238
8.599999999999998	-124.84133653629851	-7.611589191974986	-11.056469009839468
8.666666666666666	-123.38602620417873	-19.913860188072476	-11.15558921506228
8.733333333333334	-120.39432746961847	-32.07861248092718	-11.255970849193032
8.799999999999999	-116.47777466977413	-43.87773818636424	-11.355838749001075
8.866666666666665	-112.0999021048599	-55.49591866365063	-11.455260237912459
8.93333333333333	-106.34680765323765	-66.06948500918702	-11.551482813278671
8.999999999999998	-98.84860094574606	-76.60474845416752	-11.654865917463816
9.066666666666666	-90.49261983564452	-86.29250915794614	-11.75721863914472
9.133333333333331	-81.4587912457132	-95.13704169051857	-11.858273228521233
9.199999999999998	-71.51628761823349	-102.74236964624924	-11.958284442133415
9.266666666666666	-60.642206837940876	-109.35512350324939	-12.06004556829315
9.333333333333334	-49.62380794034925	-114.75690474596581	-12.158227380092642
9.400000000000002	-38.318942615778724	-119.17576329226813	-12.2552776723431
9.466666666666667	-26.32961867192398	-122.28555676322549	-12.354295704555737
9.533333333333333	-14.56178126294435	-124.29569991234303	-12.449747885266756
9.599999999999998	-2.039129615302272	-125.07482107813553	-12.550068780290829
9.666666666666666	9.883937475404764	-124.98837883783904	-12.64528524286891
9.733333333333334	22.180621608836418	-123.4076438024581	-12.744206454985532
9.799999999999999	34.16947431149947	-120.76479187559949	-12.84210567044318
9.866666666666665	46.1816449482676	-116.60242042776281	-12.943476501478733
9.93333333333333	57.32174276863384	-111.46211064020997	-13.041369816798367
9.999999999999998	67.89509343631471	-105.39108139752216	-13.13867217041611
10.066666666666666	78.06200950452694	-98.21017286853385	-13.237961252788784
10.133333333333331	87.279314634603	-90.14242680271695	-13.335632854092582
10.199999999999998	95.67844497227588	-81.12005312359292	-13.433927960306109
10.266666666666666	103.55084035333539	-71.07866632984701	-13.53561793837953
10.333333333333334	110.00911850964712	-60.66602971650707	-13.633200703337568
10.400000000000002	115.10883421947983	-48.74661606704558	-13.736582043071008
10.466666666666667	119.63244019149056	-36.954413191896265	-13.83756550424992
10.533333333333333	122.62200570274149	-24.859126074135474	-13.93714802433371
10.599999999999998	124.57225499606375	-11.915880992867415	-14.041802714720925
10.666666666666666	124.73902420021932	0.7952274063078448	-14.14354198407577
10.733333333333334	123.91105560343044	13.116154258840538	-14.242625604274203
10.799999999999999	121.1529919620707	25.26374291941147	-14.342748510967986
10.866666666666665	117.98100240775284	37.35801868373733	-14.443822984324363
10.93333333333333	113.89215225823091	48.90921321236317	-14.542787599774169
10.999999999999998	108.25466607174121	60.17761147596116	-14.644520447118442
11.066666666666666	101.45991891859785	70.70352361728919	-14.74578350427412
11.133333333333331	93.48565217590203	80.37081013753163	-14.84727281959804
11.199999999999998	84.58437079602686	89.58846507415774	-14.951287827358337
11.266666666666666	75.00756339828672	97.61034917042389	-15.052765493306598
11.333333333333334	64.94986157053381	104.79057670634847	-15.153107455531813
11.400000000000002	53.900356820746765	110.79858975862521	-15.255196909787092
11.466666666666667	41.590514224684966	115.90229736300012	-15.363433955939893
11.533333333333333	29.221898405171714	119.65660025368356	-15.46843697947165
11.599999999999998	16.196906239918007	121.93596940758994	-15.575905089411172
11.666666666666666	3.2127857117693566	122.91071185690816	-15.681830034777589
11.733333333333334	-9.924829826529276	122.85347798870293	-15.788574115349691
11.799999999999999	-23.082567695319995	120.97331336586672	-15.896504082634014
11.866666666666665	-36.21041916786453	117.828216474378	-16.006117803872353
11.93333333333333	-48.96882346822895	113.51541719095621	-16.115229429523154
11.999999999999998	-60.85805748742109	107.69568501040453	-16.222320159881637
12.066666666666666	-71.86026480774353	100.39710115042863	-16.329188524651567
12.133333333333331	-82.27869239699726	92.75234699586281	-16.43359385832353
12.199999999999998	-91.95335587049613	83.58745964249124	-16.540983239899596
12.266666666666666	-100.58282214676638	73.0295521667515	-16.65075442717001
12.333333333333334	-108.20101353580367	61.75891778811433	-16.760102935550275
12.400000000000002	-114.57951513853459	49.438270122412064	-16.871416829044964
12.466666666666667	-119.5863675186024	35.7026569130627	-16.98863247801419
12.533333333333333	-123.04510168567867	21.50096810836692	-17.1057656848335
12.599999999999998	-124.72194937651966	7.058053598470451	-17.22222957983777
12.666666666666666	-124.77749457180653	-7.961203900527153	-17.342476431543577
12.733333333333334	-122.96842928799742	-22.93761291623366	-17.46317277410398
12.799999999999999	-119.61156739926673	-36.0077638973155	-17.571169459739306
12.866666666666665	-114.8185761461807	-48.86050407359505	-17.68109201549776
12.93333333333333	-109.456793322762	-60.69302156153503	-17.785045751142363
12.999999999999998	-102.92286493284246	-71.35652410408557	-17.884975415180044
13.066666666666666	-94.88972857338285	-81.7371433664531	-17.98982957203046
13.133333333333331	-86.03218005343206	-90.77737953681992	-18.09098922984416
13.199999999999998	-76.27913754908741	-99.0039697500149	-18.19308506991
13.266666666666662	-65.93301888473934	-106.07581772603089	-18.293430510782162
13.333333333333334	-55.010574341769825	-112.3567932147223	-18.39425793184547
13.400000000000002	-43.570471878289936	-117.06313964611127	-18.493245519202297
13.466666666666667	-31.7367290021798	-121.12583051832621	-18.593301808576527
13.533333333333333	-19.44391501295013	-123.77041113925134	-18.693732829411953
13.599999999999998	-7.1738502721350415	-125.04494854180939	-18.792248566518946
13.666666666666666	4.74209030197153	-125.25070571474384	-18.88739863379321
13.733333333333334	17.239459016653655	-124.22848035669244	-18.98744745884237
13.799999999999999	28.966951578931457	-121.90443063081352	-19.082849473076713
13.866666666666665	41.12597228596951	-118.95972450768761	-19.18240686226824
13.93333333333333	52.28705144476544	-114.43786668488792	-19.27813587327433
13.999999999999998	63.54792979266176	-108.55956327637784	-19.379151477870288
14.066666666666666	73.56223455632585	-102.00867496028854	-19.474327415864227
14.133333333333331	82.98148183323701	-94.69540109014997	-19.569121143939533
14.199999999999998	92.1116777736645	-85.87339423659603	-19.6699892192984
14.266666666666662	100.30835254636804	-76.53641777052508	-19.76857570959475
14.333333333333334	107.28462913739213	-65.98214598733216	-19.86896208768561
14.400000000000002	113.15593923175106	-55.08160877567468	-19.967339600649503
14.466666666666667	118.1106825360664	-43.31340605589048	-20.068861512926897
14.533333333333333	121.8963098123204	-30.911952985241214	-20.17199556215726
14.599999999999998	124.33032089651078	-18.000125085791524	-20.27657460218477
14.666666666666666	125.30632518866832	-5.147772930910264	-20.379293826876058
14.733333333333334	124.74931663638154	1.3113894343717902	-20.430864058476885
14.799999999999999	124.26385877106554	13.882004243923575	-20.531604899258433
14.866666666666665	121.73101940680908	27.018048329792464	-20.638760581943497
14.93333333333333	117.83612352147202	39.63720838852839	-20.744838427951073
14.999999999999998	112.76958329597574	51.40354836203062	-20.848042267536446
15.066666666666666	106.40204390428107	62.94238425592573	-20.954537121523316
15.133333333333331	99.20644026341506	73.83928648076358	-21.060194930485476
15.199999999999998	90.78734974372105	83.65557042643468	-21.16488999814243
15.266666666666662	81.193630837618	92.90506964127826	-21.2729181814145
15.333333333333334	70.76958641772399	101.05217058623089	-21.380203029005084
15.400000000000002	58.88723211151637	108.01346503411492	-21.492010249757847
15.466666666666667	46.6366396745932	113.73068176576021	-21.60199820097905
15.533333333333333	33.83166782648459	117.96644399034972	-21.71185411176291
15.599999999999998	20.572254599037933	121.08817372222097	-21.82286063644216
15.666666666666666	6.424605858921495	122.79119949172696	-21.938874853687818
15.733333333333334	-7.4149168473022655	122.83469144175251	-22.05144041867629
15.799999999999999	-21.859990424703028	121.02575572862497	-22.16984453873057
15.866666666666665	-35.991263912133945	117.33609833477635	-22.28877412737965
15.93333333333333	-49.39349922762358	112.4789762460689	-22.404930848190073
15.999999999999998	-62.4528735591216	106.36703296458654	-22.522062257480385
16.066666666666666	-74.9318481504124	98.58727578785533	-22.641054505522888
16.13333333333333	-86.44816230828746	89.1943723445986	-22.760912790320354
16.2	-96.40654865873103	78.62219338603609	-22.87780741253052
16.266666666666662	-105.056250164409	66.99559118635557	-22.994256824967884
16.333333333333336	-112.51573917379164	54.3127462333282	-23.112222747248417
16.4	-117.90481810623419	41.01288551842356	-23.227189043648885
16.466666666666665	-121.89517003869423	26.970412947103682	-23.344193962725114
16.533333333333335	-124.24257939822473	11.928677761815152	-23.466227107109432
16.6	-124.89082887777818	-2.6766964331428653	-23.583373910998645
16.666666666666664	-124.07142453236611	-17.541591439352032	-23.702397009000205
16.733333333333334	-120.64758286094843	-31.935289079112408	-23.82070931992045
16.8	-116.02614514781135	-45.78169714050205	-23.937770902144916
16.866666666666664	-110.09863256478025	-59.6068947154896	-24.058157911021965
16.93333333333333	-102.16007612055705	-72.5864304294862	-24.17969417431041
17.0	-92.57604978460222	-84.38362189306758	-24.301080645920305
17.066666666666663	-81.40449155344322	-94.69874765720829	-24.422691411086
17.13333333333333	-69.16715928278927	-104.05117086586233	-24.546072431514638
17.2	-56.190190481857826	-111.96410472872651	-24.66760754836827
17.266666666666666	-41.8581154285971	-117.71800251409434	-24.791104428667182
17.333333333333336	-26.905387841100946	-122.1637663423819	-24.915961703187293
17.4	-11.687006803018448	-124.5423106999616	-25.039175579719227
17.466666666666665	3.7762237669355727	-124.75072381508994	-25.163002143627942
