质量_A
t	y	x	angle
0.0	-142.23682651973422	29.4413651977502	-1.3666903243747528
0.06666666666666606	-144.64564747192958	12.31021440823804	-1.4858949002920703
0.1333333333333321	-145.8675423262839	-4.912169920242491	-1.6044591570182891
0.2	-144.10597973267545	-21.080458560654847	-1.7160504820833875
0.26666666666666605	-139.45569704315017	-38.58970690851163	-1.8407577494157472
0.3333333333333339	-133.634819830771	-54.79155851396001	-1.9599017730238537
0.4	-124.50765371152715	-71.05220940030188	-2.089366934377814
0.46666666666666606	-114.31238850504474	-85.93894724023005	-2.215442256674766
0.533333333333334	-102.55800951785181	-98.92509291551869	-2.3381655689919727
0.6	-88.19359358963766	-110.68263458339845	-2.468796748205473
0.6666666666666661	-73.755391026094	-120.5317451356342	-2.5924569003438913
0.7333333333333322	-57.70653506873191	-128.88174328132197	-2.72061311983747
0.8	-40.75706648385176	-135.22601008943923	-2.8488523098713063
0.8666666666666679	-23.082969014274113	-139.6071670599382	-2.97773283278798
0.9333333333333339	-4.489320887291342	-141.1123223001806	-3.10978956823107
1.0	13.779599000453118	-140.76518518798946	-3.2391724323170963
1.066666666666666	32.10730475966034	-137.80272247045627	-3.370503419591718
1.1333333333333322	49.19966921086939	-133.18239208104535	-3.495458550850986
1.2	66.0901999732298	-125.7256620395093	-3.6255646882620276
1.2666666666666662	82.39815109784627	-116.04429948882591	-3.7590369216026844
1.333333333333334	96.57110748224682	-103.99023089345508	-3.8900158837546184
1.4	109.54723428874217	-89.96319434732175	-4.024837835275999
1.4666666666666661	120.51813470802358	-74.89417189328958	-4.156357459689141
1.5333333333333339	129.21428553990086	-59.5438747540976	-4.280577823410698
1.6	136.50699598796723	-41.425352401916484	-4.417754603214303
1.666666666666666	140.83616900011748	-22.502712287165764	-4.553948862778924
1.733333333333332	141.630032249044	-2.7134500950388656	-4.693232604236802
1.8	140.76106080420936	16.176328222809275	-4.82680752121332
1.8666666666666678	137.1897690125536	34.948879286666966	-4.96183174375378
1.933333333333334	131.6596194732972	52.43253676402617	-5.091379883106824
2.0	124.20599528072376	69.4016459037806	-5.22193469763142
2.066666666666666	112.94383428952347	85.48211893983705	-5.360262947531645
2.133333333333332	101.05786610377368	100.03440588297497	-5.492697682243386
2.2	86.0636738311216	112.97423043065476	-5.632175404759493
2.266666666666666	70.07518486108756	123.71555295117639	-5.7678216763569194
2.333333333333334	53.30671356501398	132.4728813315354	-5.900614107343209
2.4	34.18373789103134	138.1172694602218	-6.040562919009226
2.466666666666666	14.116314473970078	141.7840338715672	-6.183950249582217
2.533333333333334	-6.162487598199505	142.63024692770625	-6.326364488233398
2.6	-26.76048152530234	140.85471147015585	-6.470934141013458
2.666666666666666	-46.6502536152434	136.40799405008522	-6.612707073896349
2.733333333333332	-65.19929065522547	128.5689813736991	-6.75250889768568
2.8	-83.14377204882453	117.81124750335323	-6.897751327386159
2.866666666666668	-99.6415202245712	104.65669086824835	-7.04404011520559
2.933333333333334	-114.47358520905641	90.06736973102863	-7.187343869607642
3.0	-127.211272798452	73.72720769270188	-7.328723365718703
3.066666666666666	-136.45422215257418	55.30275242991263	-7.468928152148347
3.133333333333332	-142.49417011791047	34.98345446206497	-7.613235211676216
3.2	-145.49552751598208	13.760417077844409	-7.759685893914711
3.266666666666666	-145.29799374756817	-7.9000588877967175	-7.908299574705227
3.333333333333334	-143.07086102982498	-29.158205201362875	-8.055030796464353
3.4	-138.40821764680936	-49.5082478718972	-8.197497224684732
3.466666666666666	-129.03104036855507	-68.67232429751687	-8.343068298824532
3.533333333333334	-116.28953662770459	-86.51129752414329	-8.493586735431114
3.6	-100.33193674017525	-102.62844119857243	-8.650694352863113
3.666666666666666	-83.05854617705268	-116.32678368562449	-8.804710728195674
3.733333333333332	-63.899405662445815	-126.99275210199391	-8.958594662057298
3.799999999999998	-43.69254189563321	-134.78640473343341	-9.111304785700785
3.866666666666668	-22.33135718898393	-139.78051364693908	-9.266356560935225
3.933333333333334	-0.49294150474770504	-141.29239536730677	-9.421289170707514
4.0	21.14867376146617	-140.4481820404419	-9.574235003300911
4.066666666666666	42.90163247596843	-135.66287863519574	-9.731063796315924
4.133333333333332	62.957744268222314	-126.75310767034478	-9.885778768602247
4.2	81.32489615155532	-115.4416240980944	-10.038496096545932
4.266666666666666	97.95456385349394	-102.11622388325213	-10.189378185539143
4.333333333333334	112.63064989732902	-86.342749340458	-10.341533031109844
4.4	125.00783019397454	-68.44407976808509	-10.49463837762966
4.466666666666666	134.1537953270672	-48.49754882939908	-10.648685163632393
4.533333333333334	139.68226400300273	-26.11808526679954	-10.810726680115513
4.6	141.36503537261274	-4.4263186441709195	-10.9642732450652
4.666666666666666	139.86752098920147	17.280953112464772	-11.118503595717797
4.7333333333333325	135.95606642369057	38.44342128024152	-11.271143795488186
4.799999999999998	128.59036027969228	58.295104200682886	-11.421201965255692
4.866666666666668	118.15863272845513	78.02313978947075	-11.579173886383618
4.933333333333334	105.0210288917715	94.72674173218923	-11.729481574564922
5.0	88.90254746434448	109.67150944192588	-11.8851840672504
5.066666666666666	71.83840579664025	121.62826282734125	-12.032862573703376
5.133333333333332	52.924061210974514	131.05448475930973	-12.182564723871087
5.2	32.4271330266954	137.90403674395327	-12.335423388736466
5.266666666666666	10.159581647944606	141.41395800004318	-12.494650986973545
5.333333333333334	-12.069939962600529	141.33196668055314	-12.651565240862482
5.4	-34.1053976796677	138.56407938671043	-12.807707845450665
5.466666666666666	-56.31213974846037	132.8098655745399	-12.967398777671576
5.533333333333334	-75.5776947924785	122.5543031116107	-13.118969987106432
5.6	-94.31345537755533	108.89125166550309	-13.280152007716751
5.666666666666666	-110.65788483766187	92.18565143360263	-13.4425846960692
5.7333333333333325	-125.1049474296749	74.01134125002943	-13.602951221464657
5.799999999999998	-136.62238343527883	52.57977228695961	-13.769784610687996
5.866666666666668	-144.34688130542554	29.82303416864613	-13.933426922050042
5.933333333333334	-146.72197981199156	5.738880618284043	-14.098072889500914
6.0	-145.34060744648286	-18.22247951994757	-14.261893864810881
6.066666666666666	-140.18695721733252	-41.07442006448889	-14.422187055039537
6.133333333333332	-132.1539560269191	-62.59094802722586	-14.57948990218141
6.2	-120.74727310417984	-81.94469756539058	-14.733417388521266
6.266666666666666	-105.84501847053866	-99.98549165138877	-14.89410506376873
6.333333333333332	-87.51606050049281	-113.54701647175978	-15.051315552249218
6.4	-66.92014551820512	-126.41623925248052	-15.221101719160504
6.466666666666664	-45.387068969755546	-134.8689536639033	-15.383341008831323
6.533333333333332	-22.87781435247848	-140.28764781488655	-15.546308387061668
6.6	0.7057888977051334	-141.8651603417601	-15.712938295454137
6.666666666666668	23.00012047794644	-139.7712019930285	-15.871057139803332
6.733333333333336	45.91772500857701	-134.00476697993133	-16.038081878958995
6.8	66.62683459154482	-124.94620384212271	-16.197851172747637
6.866666666666668	86.05305159822842	-112.6414215777819	-16.36033633425801
6.933333333333332	103.3223159233653	-97.00288950061088	-16.524896811142376
7.0	117.55686923923099	-78.8487553550284	-16.687950146934476
7.066666666666668	128.55742395794528	-59.13352066723803	-16.847639436298497
7.133333333333332	136.86175385158072	-37.333683367327126	-17.012454836769503
7.2	141.51193820144567	-13.756712635788176	-17.18185171474799
7.266666666666664	141.5966569167133	9.161659730733732	-17.34337204471354
7.333333333333332	137.78178012146964	33.192022276847524	-17.515158070073994
7.4	129.75602752963778	56.171137841990344	-17.68730093934711
7.466666666666664	118.65090085051884	76.19195765735537	-17.849598233480762
7.533333333333332	105.07505313287129	95.35970066938523	-18.015724268820016
7.6	88.46378752244073	111.21017517410735	-18.177586426646894
7.666666666666668	68.88358319375106	124.42791602892555	-18.34395122022123
7.733333333333336	47.18163427921331	134.3417118182009	-18.511806992737828
7.8	23.50358997726994	140.14303093900514	-18.683390877312338
7.866666666666668	-0.19284161484370088	143.05378633747512	-18.850903956449056
7.933333333333332	-24.19057611900439	140.6771940377888	-19.019848513775063
8.0	-48.47053763620397	135.0212736054533	-19.194212176188795
8.066666666666668	-71.73709784106927	125.1898127884109	-19.369905904648775
8.133333333333333	-92.80681773589663	111.70907814382997	-19.542791508662663
8.2	-111.45826741480391	94.64400437577717	-19.71635594384159
8.266666666666664	-127.06668355706097	74.66438552010493	-19.88910027831599
8.333333333333332	-137.66934351185841	51.74266510489986	-20.0608388572698
8.4	-143.88926348316295	27.28575146883793	-20.232947230252158
8.466666666666665	-146.77853177471593	1.056166111588368	-20.41315672817884
8.533333333333331	-144.70764015839245	-24.100485196990235	-20.585383562149755
8.6	-137.5945733650576	-48.86117866548659	-20.761571937729382
8.666666666666668	-126.69297632439543	-71.48745237709375	-20.93407572203557
8.733333333333336	-110.60327249884517	-91.65561941059207	-21.112342824642237
8.8	-90.59374221756025	-110.4582965611038	-21.30423382384424
8.866666666666667	-68.6662279667853	-125.07318309087748	-21.489066989154104
8.933333333333332	-43.46498999793016	-135.29862325971874	-21.68031009401607
9.0	-17.769563893248915	-140.53573324784566	-21.865374405323188
9.066666666666668	8.037726763365981	-141.47842681464056	-22.04789995415
9.133333333333333	34.91318916552723	-137.6973565220709	-22.23946578041697
9.2	58.690674662212814	-129.11825222663072	-22.41777966279155
9.266666666666664	81.77918936624314	-116.07552336523247	-22.6049112259355
9.333333333333332	101.28277438601162	-99.44246471139274	-22.785714783966558
9.4	117.73386337518241	-79.41563326590301	-22.968514627631635
9.466666666666665	130.565466225509	-57.07664027704698	-23.14982861119334
9.533333333333331	138.89823440355394	-32.66507825000497	-23.330969248924823
9.6	142.36804652078263	-6.579513301637121	-23.515762944240358
9.666666666666668	140.92855353417417	19.695878367327055	-23.700803387199663
9.733333333333336	134.16575840648147	45.3959338715257	-23.88820999110189
9.8	123.24995183529472	69.3225365493289	-24.074300084466245
9.866666666666667	108.30094689432781	90.53848991643633	-24.258248898340383
9.933333333333332	90.16765807535808	108.38516836396491	-24.43883834619007
10.0	69.09753931006685	123.41402788712924	-24.622341219835434
10.066666666666668	44.703278125024326	134.48753939745518	-24.811833453605136
10.133333333333333	19.145896496234172	140.1892003996462	-24.997009121529004
10.2	-7.797495449697863	141.48475224334095	-25.187797446280896
10.266666666666664	-34.534801356323214	138.55772445997957	-25.377009050563583
10.333333333333332	-59.19899428744043	131.49004697388352	-25.555775216964218
10.4	-83.16078332793336	118.25257734118338	-25.74564313910046
10.466666666666665	-103.9098891660708	100.9150437025852	-25.932759839091204
10.533333333333331	-121.60687635629188	79.40932693805814	-26.125056050562137
10.6	-135.67416716226353	56.44533073187347	-26.30928397335982
10.666666666666668	-144.62163073479837	30.570420398961573	-26.495222030055693
10.733333333333336	-147.5096400915129	3.3905010811148486	-26.680556656148127
10.8	-144.39295841693752	-24.2714221926268	-26.870073537525602
10.866666666666667	-135.83446252087356	-52.47118108274242	-27.072167376748745
10.933333333333332	-121.91723163238589	-77.9725254165229	-27.27253353710357
11.0	-103.88771197372148	-99.61552533083375	-27.467945589909053
11.066666666666668	-81.44570345055376	-117.18916456740544	-27.66697591809958
11.133333333333333	-57.42878329073278	-130.35533426208679	-27.859361551169794
11.2	-30.081346470945164	-138.86810594486212	-28.061011621258448
11.266666666666664	-2.3915718648884194	-142.0301228462448	-28.257496990074657
11.333333333333332	25.485324860172796	-139.6259507346797	-28.45487217753817
11.4	51.67297543611721	-131.60818604337794	-28.64846842747908
11.466666666666665	75.83751384670381	-119.49623213859047	-28.839837854283232
11.533333333333331	97.29252122284561	-103.24689724867255	-29.030048967945657
11.6	115.32480201268322	-83.88863143042147	-29.216242913107585
11.666666666666668	129.40478095834828	-60.53196275722905	-29.40759558219436
11.733333333333336	138.18894683490203	-34.28868063285506	-29.60191329195951
11.8	141.91965247471126	-6.900353420615488	-29.796546919931533
11.866666666666667	140.03759418444884	20.2746300426237	-29.988911064503586
11.933333333333332	133.4146415151979	46.34359731374809	-30.179455800010697
12.0	122.51259247318671	71.67039144183457	-30.374450470537912
12.066666666666668	106.35708076969581	94.23654666992604	-30.570178420807505
12.133333333333333	86.11306371840737	112.44462441028224	-30.762373225344042
12.2	62.46820055187095	127.31841716968677	-30.959790542931028
12.266666666666664	36.85226774303328	137.1640610577257	-31.153452030548934
12.333333333333332	9.813386295174269	141.9326936750307	-31.346895270962438
12.4	-18.467704410285705	141.5578029923803	-31.545654378572962
12.466666666666665	-46.16479334357109	135.25161383328702	-31.744852504448442
12.533333333333331	-72.2076204074665	124.52303306836586	-31.941415747444996
12.6	-95.83960253998089	109.36358889594374	-32.13551453040222
12.666666666666668	-116.01996791286501	88.5767920586103	-32.334661841332824
12.733333333333336	-131.2111104419589	64.41243611014704	-32.53037618023743
12.8	-141.1383872072804	37.15046672292817	-32.72934093025471
12.866666666666667	-145.2534795139918	8.595382303279052	-32.92761673608351
12.933333333333332	-143.89197515595856	-20.768780218761663	-33.130068815222884
13.0	-138.81826758528837	-48.55783577630052	-33.32321439965294
13.066666666666668	-124.96744746129275	-74.99099836664539	-33.52720431732366
13.133333333333333	-106.98807473656734	-98.60262488899082	-33.73135651426871
13.2	-82.30039993074229	-116.86167003512139	-33.94394331392353
13.266666666666664	-55.293213405872166	-131.3005848363091	-34.158940096629514
13.333333333333332	-26.629465273385676	-139.89927152350128	-34.36942195005881
13.4	4.198536261157415	-141.8760940683777	-34.58710353431647
13.466666666666665	33.68970750961671	-137.29789480524062	-34.7981418220386
13.533333333333331	61.074203657164844	-127.66207963832085	-35.003742200436264
13.6	86.55899843641942	-112.18452488806327	-35.2146871671918
13.666666666666668	107.99912189269867	-92.60668104973263	-35.419497089940855
13.733333333333336	124.89902474837731	-68.45641397302086	-35.62693677408204
13.8	136.23183369913977	-41.155663266435	-35.83493305463144
13.866666666666667	140.8746792005934	-11.789501948743805	-36.04482220238095
13.933333333333332	140.0171490228247	17.060285570174642	-36.249562120997496
14.0	134.01923321350455	45.30429535969358	-36.454298977311666
14.066666666666668	121.48507457210894	72.0168752603671	-36.66342726456515
14.133333333333333	103.80037765489465	95.93275230327515	-36.87434334621235
14.2	82.03813771102455	115.30779617520295	-37.080728725110504
14.266666666666664	56.74031440065437	129.66163943299978	-37.286615004074854
14.333333333333332	29.46872741754123	138.61308878790112	-37.48963363885826
14.4	-0.18313552196627825	142.14895411759937	-37.70040017771058
14.466666666666665	-29.607085704870087	139.66895994160848	-37.908000058412284
14.533333333333331	-58.27863382998589	131.1135430768835	-38.117374054464506
14.6	-85.01750537090925	118.42544651727451	-38.321749799957544
14.666666666666668	-107.84836738062018	98.9824154334841	-38.527349507911474
14.733333333333336	-126.11248628424914	75.30358836640437	-38.73161309601802
14.8	-138.17526817949351	47.780306327034054	-38.93698442152913
14.866666666666667	-145.40564427915592	17.709166423073498	-39.14871358585375
14.933333333333332	-148.48980700153493	3.446441861539256	-39.24670238044724
15.0	-144.4522337293472	-26.88383040862948	-39.45391182040803
15.066666666666668	-134.4569747101018	-56.19401651024248	-39.66577787159018
15.133333333333333	-118.8306159423446	-82.92942490842881	-39.879209414949216
15.2	-97.19778829848042	-105.5321079316185	-40.09639365856683
15.266666666666664	-71.22815200812488	-123.38129950364214	-40.31714264685999
15.333333333333332	-41.7143812642596	-135.40147070290266	-40.541852141880526
15.4	-10.396774710972068	-141.07500635022268	-40.76714069751059
15.466666666666665	21.62463774147568	-140.3510596419701	-40.993577707933554
15.533333333333331	51.437339587272845	-132.39808890727625	-41.21126241541849
15.6	78.60995688338721	-118.48421587521318	-41.42648626899789
15.666666666666668	101.8628860921815	-98.95047566536516	-41.64060471425677
15.733333333333336	120.21631550714551	-75.7335266811541	-41.84933046802141
15.8	133.60878323636348	-48.98127862109925	-42.06011282596128
15.866666666666667	141.18179752873857	-19.291466778699828	-42.27569911735873
15.933333333333332	141.73654244890986	10.099185300627937	-42.482633826576844
16.0	135.84097436691673	40.00221706818559	-42.6978841568446
16.066666666666666	123.95650994814969	67.49484197625077	-42.91011483122612
16.133333333333333	106.93329890048813	91.87106723196905	-43.121279367654815
16.2	85.63304798778086	112.54396831714587	-43.331865788762165
16.266666666666666	59.75840003422195	128.27088722211772	-43.54631899485346
16.333333333333332	31.651943561634425	138.36313348856572	-43.75740682757717
16.4	1.4903829040456458	142.18182851821336	-43.97181530221214
16.466666666666665	-29.003501037851493	139.9580529547892	-44.18663482623759
16.53333333333333	-58.43930898060853	132.4297550541511	-44.39788037116231
16.599999999999998	-84.84461818446493	117.74485483788101	-44.606702250761636
16.666666666666668	-107.820789739558	97.11454619594622	-44.81988992162951
16.733333333333334	-126.33658992667438	72.00500712895371	-45.03506586837064
16.8	-139.50190143750729	44.338709303985866	-45.24535486461425
16.866666666666667	-147.00875634429553	13.944184746622227	-45.45852366649053
16.933333333333334	-146.54196220434483	-16.187600896850086	-45.66311136317503
17.0	-139.30817382998953	-47.12620949113045	-45.879296106944885
17.066666666666666	-124.04488252157034	-76.03247630165936	-46.102975770729884
17.133333333333333	-102.63210000502909	-100.14034585302682	-46.32620383314883
17.2	-77.29456918060964	-120.08542598412362	-46.551982184464826
17.266666666666666	-48.0781910473338	-133.96633286779218	-46.77932374069463
17.333333333333332	-17.000157043844183	-140.7471907639076	-47.00368704009883
17.4	15.677050696623382	-140.94250829681562	-47.23466457113354
17.466666666666665	47.26771980952594	-133.58831269643974	-47.46397367881939
17.53333333333333	76.6103674889298	-119.89878081775885	-47.692463915782724
17.599999999999998	101.26665474773131	-99.85454675193535	-47.916309031069275
17.666666666666668	120.7267164974312	-74.53434995105852	-48.14158460278834
17.733333333333334	134.8022234465518	-46.825969875422174	-48.360358057723
17.8	141.2519310832172	-15.31385277542688	-48.5866927505928
17.866666666666667	140.97839650346918	16.03475895461122	-48.80793855880818
17.933333333333334	133.9688158577212	47.24304161717134	-49.03371275260929
18.0	119.83321662344952	75.8087442046641	-49.25874537446229
18.066666666666666	99.65666133898526	100.50041499335327	-49.48429972659865
18.133333333333333	75.48327175044142	120.67664694031407	-49.70652349906414
18.2	47.35991309053247	133.90589074883985	-49.92553249535069
18.266666666666666	16.46497028368617	140.80260064985407	-50.14907458005638
18.333333333333332	-15.718664324236215	141.27774599284282	-50.37628746466393
