质量_A
t	y	x	angle
0.0	-115.77261336288859	-1.1997744060729474	1.560433500702214
0.06666666666666787	-115.03742141169982	-12.20302893314664	1.4651127762574214
0.1333333333333321	-113.10333310555029	-22.834781654784308	1.3715811504692885
0.2	-111.05183447485365	-33.37016677557068	1.2788883913283489
0.2666666666666642	-107.14783920028572	-43.541531889863734	1.184811746450223
0.3333333333333321	-102.02348297827962	-54.01633584740347	1.083867209273378
0.4	-96.34397116826244	-63.334029638473055	0.9892546715856347
0.46666666666666423	-89.74978053695145	-72.88110601712793	0.888752255275812
0.5333333333333321	-81.95154593500934	-81.37478408704754	0.7889294951209785
0.5999999999999963	-73.58071979913029	-88.84696371989975	0.6916855171647882
0.6666666666666679	-64.15320325499738	-95.89694283923126	0.5896029111029344
0.7333333333333357	-53.888865744665736	-101.84943576430095	0.48665821280740845
0.8	-43.262163457124416	-106.83421221637815	0.38476350055997716
0.8666666666666679	-31.72269142205664	-110.56590716024692	0.2794066781138927
0.9333333333333321	-26.149887479996096	-111.60244464907709	0.2301606778519207
1.0	-13.938179483684507	-113.78286071416238	0.12189079025106385
1.066666666666668	-1.9555445393664286	-114.75489782350627	0.017039405849402157
1.1333333333333322	10.29481840290714	-114.10826460421475	-0.08997614812922684
1.2	22.362121889857008	-112.09610622065833	-0.1969057248196659
1.2666666666666642	33.67955334324438	-109.02920006855828	-0.2996054291736838
1.3333333333333321	44.53436664777587	-104.82613793101467	-0.40173536231745643
1.4	55.30153006388923	-99.45276256456162	-0.5074825641789291
1.4666666666666643	65.42962055955218	-92.79409419082816	-0.6141442216620359
1.533333333333332	74.24822574029895	-85.19670472307445	-0.7168395712083703
1.5999999999999963	82.89061070043294	-76.55009793413495	-0.8251444341374198
1.6666666666666679	90.687863778772	-67.14254008077995	-0.9334871994466561
1.7333333333333358	96.7525872247486	-57.276902604803524	-1.036284759925431
1.8	102.68327589427122	-46.637122087336536	-1.1444682656822656
1.8666666666666678	106.89541429049791	-35.040759667027544	-1.2540302706007829
1.933333333333332	109.88202358529043	-22.89473359707955	-1.3653778646915575
2.0	111.80338132613588	-10.343410769709351	-1.4785446267043691
2.066666666666664	112.04187375070273	1.7864513969832956	-1.5867394735150433
2.133333333333332	111.4297151605349	13.679592552372299	-1.692949428293961
2.2000000000000037	109.31760814890572	25.837443466912703	-1.802889214749393
2.2666666666666644	105.84805105340752	38.10874297114498	-1.9163807162134792
2.3333333333333357	101.42931009411609	49.19520471348693	-2.0223879654656
2.4	95.58778690695613	59.9708240984383	-2.131112466564129
2.4666666666666677	88.18950167038815	69.95425298601464	-2.2413934403865894
2.5333333333333323	80.2957183868973	79.34431917176818	-2.3502349078334555
2.6	71.5376828375413	87.6189121824778	-2.4568930314955724
2.6666666666666643	62.027742684914074	94.94960086410521	-2.5629219719958503
2.7333333333333356	51.672787036713316	101.45220769593544	-2.67050788426559
2.8	40.83221357766274	106.52680567165254	-2.7755611987261672
2.866666666666664	29.55776645673791	110.18953803436517	-2.8795175155726787
2.9333333333333287	17.738073564247543	112.83434775990742	-2.9856642405718112
3.0	5.93520485979775	114.11199308110355	-3.089627375607354
3.066666666666664	-5.813034067475428	114.31045366605105	-3.1924019255779474
3.133333333333336	-17.800946374347177	113.38422931665997	-3.2973181870735084
3.2	-29.650653639464508	111.60158564093405	-3.4012765396688622
3.2666666666666644	-41.280019462273685	107.88254809940946	-3.507043241160785
3.3333333333333357	-52.70719089306499	102.71303676426993	-3.615704804702671
3.4	-63.53088420750805	96.40798812859208	-3.7242544483613225
3.4666666666666717	-73.54289517330699	89.02726623423615	-3.8320299756682727
3.5333333333333283	-83.08584211210814	81.0783205999042	-3.9392189514247784
3.6	-91.44547155664145	72.2334023368465	-4.043832783684107
3.6666666666666643	-99.12834962769762	61.85685713434765	-4.154503520632709
3.7333333333333356	-104.78554422360207	50.905946289384076	-4.260157051363203
3.8	-109.49324257552553	38.92587008720744	-4.370814521607207
3.866666666666664	-112.92278803306112	26.556736961864374	-4.481410175657327
3.9333333333333287	-115.17290661802053	14.424463672091235	-4.587795899796808
4.0	-115.91316147227985	1.7793556099468901	-4.697039421791706
4.066666666666665	-115.77831636429369	-10.321245766239656	-4.801300568769916
4.1333333333333355	-113.51162515353167	-22.898764620522286	-4.911447992823794
4.2	-110.21238684212108	-35.49968490412499	-5.02399795829739
4.266666666666664	-105.17902002371238	-47.412147213866035	-5.135887798610943
4.333333333333336	-99.3287918285871	-58.70018555405687	-5.246141192930969
4.4	-92.4917399719468	-69.20105009933258	-5.354728292186114
4.466666666666671	-84.09860798273849	-79.04930441633104	-5.466847781760061
4.533333333333329	-74.95110299778275	-87.98878161214606	-5.577632300866424
4.6	-64.65030919333753	-95.84004475813589	-5.689734760882095
4.666666666666664	-53.08155754040695	-102.6001934907494	-5.805743874448917
4.733333333333336	-41.25833696356108	-107.45321534337717	-5.916577656897125
4.8	-28.71481746828954	-111.07715427013744	-6.030211194497641
4.8666666666666645	-15.956851687981498	-113.12996285111052	-6.143060821895982
4.933333333333328	-2.9801929145096437	-114.27812415149714	-6.257112796641394
5.0	9.774342023735016	-113.99710318044816	-6.368718133872722
5.066666666666665	22.675504808906453	-111.98620030893716	-6.482968964442576
5.1333333333333355	35.281189886842185	-108.53580071089954	-6.5974759939905745
5.2	47.084195424396285	-103.55191823084573	-6.709933978533694
5.266666666666664	58.22016078945603	-96.84370133411443	-6.824469457579316
5.333333333333336	68.4150049030759	-89.71805501573357	-6.9346736896593475
5.4	78.27903034583528	-81.27354140316464	-7.049817495834173
5.466666666666671	87.02928943896018	-71.75240353806424	-7.16450137204364
5.533333333333329	94.90388201217002	-60.902853203082316	-7.283440727489179
5.6	101.49722036262597	-48.86424153024444	-7.405296606439366
5.666666666666664	106.54126063387571	-36.35809359840772	-7.525115612227675
5.733333333333336	110.12608596167797	-22.30099396655595	-7.654179361642804
5.8	111.9192623404549	-7.036299634479917	-7.791194845223792
5.8666666666666645	111.85618917251145	7.505483513980209	-7.920980606908973
5.933333333333328	109.99384543511474	22.389797191342097	-8.054793114311028
6.0	106.27810599907593	36.570369992722874	-8.18539131029487
6.066666666666665	101.33337635503426	49.18089190070583	-8.30583062294977
6.1333333333333355	95.33951050080304	60.73236928382363	-8.42117187765708
6.2	87.74171921965603	71.27613599992543	-8.53620199577228
6.266666666666664	79.24226017229353	81.10419648927433	-8.650991233484664
6.333333333333336	69.68704445552021	89.26843619952075	-8.761950173564983
6.4	59.191278233075764	96.89280087438357	-8.876386292723364
6.466666666666671	48.003058919513705	103.15496717777438	-8.989233387873849
6.533333333333329	36.29765705082582	107.87344670340718	-9.100194756351748
6.6	24.00879329781651	111.43063477437437	-9.212562606059262
6.666666666666664	11.51552156257867	113.53331868442802	-9.323695088731911
6.733333333333336	-1.4916207970859432	114.27823848990926	-9.437829755380141
6.8	-13.886103360148127	113.55636409775803	-9.546457651943882
6.8666666666666645	-26.67659413546994	111.57383238107224	-9.65946577200703
6.933333333333328	-38.83365362592804	108.15763447391333	-9.769489455387639
7.0	-50.74162978628988	103.15485128806614	-9.881922712392354
7.066666666666665	-62.19870191924815	96.87107964302237	-9.995563301272151
7.1333333333333355	-72.79277631056084	89.48726823913177	-10.107662167282855
7.2	-82.59765955483431	80.94069849933322	-10.220307718855555
7.266666666666664	-91.23525736881993	70.95830910248816	-10.33454782779964
7.333333333333336	-98.6374421955868	60.00203513316984	-10.449067682197807
7.4	-104.98767539426694	48.075140953341645	-10.566160060200518
7.466666666666671	-109.77973054163317	35.19117992157504	-10.685361877718918
7.533333333333329	-113.47794915165741	22.004369738071148	-10.804042479589926
7.6	-115.26472298914473	8.775888459287955	-10.919584083705029
7.666666666666664	-115.73073287529155	-4.683894871507562	-11.036024562453294
7.733333333333336	-114.35417225505898	-17.76008068512482	-11.149651030775233
7.8	-111.50129902215235	-31.314420151064212	-11.269365038746496
7.8666666666666645	-106.89766032690454	-44.498415591947094	-11.390028380329682
7.933333333333328	-100.74343768170479	-56.98484561426386	-11.510348292198247
8.0	-93.3739555922416	-68.26520485746022	-11.626865814787129
8.066666666666665	-84.81651493435243	-78.80419999620011	-11.744243537183031
8.133333333333336	-74.8468258275791	-88.1204420244373	-11.862242635535397
8.2	-63.96864349521752	-96.26143000885958	-11.97984844550802
8.266666666666664	-51.54277876173023	-103.35549342668008	-12.103768240088144
8.333333333333336	-38.73158577493609	-108.63884722577694	-12.22390192541871
8.4	-25.291131881406955	-112.20915846728798	-12.344682369211267
8.466666666666672	-11.675038868202364	-114.07685958188341	-12.464382087625555
8.533333333333328	2.3945718362808748	-114.47357786042488	-12.587285682362554
8.6	16.63617748170077	-113.18491996379538	-12.712307947022566
8.666666666666664	30.160653849921573	-109.79974730631437	-12.834446576145673
8.733333333333336	43.55912021712993	-104.90642105535227	-12.959927430883507
8.8	56.156646234987875	-98.36391746945804	-13.085123434215406
8.866666666666664	67.78500461392014	-90.00792478263253	-13.211853031233469
8.933333333333328	78.42069315197932	-80.84595120544617	-13.33654229620569
9.0	87.95187521319372	-70.22082990927214	-13.463402004220342
9.066666666666665	96.04889689576657	-58.2416537032463	-13.592073092253175
9.133333333333336	102.4831369204087	-45.47487784854667	-13.719539078237666
9.2	107.60840085252971	-31.41767418615467	-13.853099730229188
9.266666666666664	110.50666106417361	-17.215104632395366	-13.982625700466262
9.333333333333336	111.59844957056134	-2.0622742033778536	-14.118689627969752
9.4	110.89823981842869	12.32305133629194	-14.247833289547277
9.466666666666672	108.67248212131176	26.72094958346389	-14.378269070560899
9.533333333333328	104.11366186646933	41.1535015830396	-14.51359320067509
9.6	97.99905999050497	54.51970684796703	-14.644856184731772
9.666666666666664	90.01307246134843	67.4067127648205	-14.7799346576802
9.733333333333336	81.01284709214929	78.88379738599662	-14.909250729479837
9.8	70.71879919471235	88.68316020672006	-15.034790077389522
9.866666666666664	58.00692639815975	97.62632869002033	-15.171839359580172
9.933333333333328	45.02753238858372	104.62447988151217	-15.301550610096324
10.0	30.952739848433566	110.0325257229984	-15.433744510679078
10.066666666666665	16.506201710265486	113.15315330465302	-15.563110096690368
10.133333333333336	1.9748753768071765	114.22670556929512	-15.690675903924953
10.2	-13.398489701334256	113.76986955180274	-15.825191645154387
10.266666666666664	-28.750501446119188	111.24849179254358	-15.960864842478646
10.333333333333336	-42.920972405396924	106.7057810154102	-16.090396275156866
10.4	-56.923253968892595	100.29670366709234	-16.224179593900203
10.466666666666672	-69.54198838922753	92.19032211092241	-16.354230255520815
10.533333333333328	-81.04045881913385	82.83155276152166	-16.482432032188502
10.6	-91.02345396294754	71.24014855548336	-16.614683440928335
10.666666666666664	-99.70719536114098	58.240233000420005	-16.75010389274158
10.733333333333336	-106.75472459516777	44.58607646704314	-16.88313117108501
10.8	-111.92882921852492	29.816536907790635	-17.018417053744034
10.866666666666664	-115.04137050723034	14.72142453316593	-17.151484958437763
10.933333333333328	-115.84401947442848	-0.8997191727120821	-17.28652608184325
11.0	-114.53507382568205	-15.966497990783807	-17.41726966560611
11.066666666666665	-111.54810420023409	-31.55775024202211	-17.554462007483203
11.133333333333336	-106.14089439032045	-46.137100646944816	-17.68879886665612
11.2	-98.81104084567414	-60.16351129450544	-17.825678835425066
11.266666666666664	-90.06893164475355	-72.95042103142072	-17.95953212944293
11.333333333333336	-79.45376128730936	-83.99769219856142	-18.09195048062691
11.4	-67.22190634953085	-93.97007405508549	-18.228599147077613
11.466666666666672	-53.773976108501984	-102.39510017976187	-18.365982234177032
11.533333333333328	-39.18028206458371	-108.57871737508646	-18.503250902742316
11.6	-23.73389127642008	-112.60960290531983	-18.641833461697747
11.666666666666664	-8.106885121928144	-114.28533895866457	-18.778739064544286
11.733333333333336	7.5862806301570345	-114.18813854022761	-18.915895111141683
11.8	23.51969098525774	-111.6394330104294	-19.057194976015722
11.866666666666664	38.54548923531797	-106.8758617923067	-19.195692683748213
11.933333333333328	52.89639694915104	-100.26390613287066	-19.33501680101814
12.0	66.06904848084855	-91.78697419258782	-19.47345287409052
12.066666666666665	78.09141014782176	-81.2972054080546	-19.6148437209204
12.133333333333336	87.98372751308898	-69.75187581245376	-19.750028324991714
12.2	97.05719551415655	-56.88981335988484	-19.890180829289942
12.266666666666664	104.0079845626758	-43.261589147881466	-20.02617629567284
12.333333333333336	109.05549901451582	-27.737952451880062	-20.171286378456234
12.4	111.60691376641967	-12.162357608364971	-20.311805631353344
12.466666666666672	112.11639782279372	4.374757202499097	-20.4593522435272
12.533333333333328	110.1727174871296	20.205083721293306	-20.601731316385276
12.6	106.4384332923712	36.08966047189625	-20.747253355312477
12.666666666666664	100.10604970562781	51.870305721132866	-20.898417007597576
12.733333333333336	90.82013421011811	66.48499285842041	-21.052266849376284
12.8	79.46080900086918	80.18513282630744	-21.210287444412007
12.866666666666664	66.71815552491944	91.9118178783445	-21.363255223869434
12.933333333333328	52.093503539077346	100.83157860862599	-21.51427872038829
13.0	37.26266862053103	107.42215192711416	-21.65725536228548
13.066666666666665	21.418159437690747	112.0117007533043	-21.802215583779525
13.133333333333336	5.7824356312537475	114.48586765661668	-21.94068360350768
13.2	-10.058118746443597	114.07606385822675	-22.079091438642575
13.266666666666664	-25.469054117948872	111.85985006886091	-22.215019240011095
13.333333333333336	-40.30112539499032	107.74678420327638	-22.349073413517804
13.4	-54.99658708041238	100.95380573225503	-22.489967430413
13.466666666666672	-68.0506188549532	92.8335738456754	-22.623705902469283
13.533333333333328	-80.55287254833979	82.70112388826993	-22.763388546971306
13.6	-90.99966516035238	71.9917177015414	-22.89264167378412
13.666666666666664	-100.01442532198712	58.652273432914	-23.03155704502302
13.733333333333336	-106.96170984515379	44.74675830132293	-23.165725675267336
13.8	-111.80387241497874	29.629724020385595	-23.30288498214189
13.866666666666664	-114.7293658662445	13.759455652880035	-23.442585302390377
13.933333333333328	-115.21959570134914	-2.2774735627561427	-23.581708701719887
14.0	-113.86640635064236	-18.219965681374163	-23.72061164421683
14.066666666666665	-110.46924595459018	-33.35412072727553	-23.8551725688978
14.133333333333336	-104.90914606550382	-48.0557922189185	-23.991490011166633
14.2	-97.24536982938912	-62.10966305642836	-24.13032832856252
14.266666666666664	-87.55626712241587	-75.41524208909658	-24.272982589766627
14.333333333333336	-76.25643793815539	-86.56945342827743	-24.410596260026953
14.4	-63.185928517742695	-96.06547845372296	-24.550945415121113
14.466666666666672	-48.79210287698106	-104.08361689212205	-24.69438176735401
14.533333333333328	-33.702200518851896	-109.60853075767744	-24.834438176097695
14.6	-17.77090792116678	-113.2427210489156	-24.977083108358737
14.666666666666664	-1.4850354743041407	-114.40170838145099	-25.119761072280337
14.733333333333336	15.216677388182916	-113.017397270299	-25.26657651390648
14.8	31.621602528442736	-109.29252927954434	-25.41438047387979
14.866666666666664	46.73570706725536	-103.0595282487256	-25.558487544482414
14.933333333333328	61.30401939387775	-94.89028049674238	-25.70633577674053
15.0	74.15580097227144	-84.83797226622204	-25.851054112850065
15.066666666666665	85.97676201641593	-73.2539928797259	-25.99787145961059
15.133333333333336	95.4203218212931	-59.6915688232495	-26.144532388626153
15.2	103.2860015897993	-44.78775241376678	-26.294381262491594
15.266666666666664	108.47565309671631	-28.339185836524223	-26.447999681043072
15.333333333333336	111.2058984293119	-11.623698643748128	-26.59939161199805
15.4	111.75637099699247	6.002357458955942	-26.75719530878478
15.466666666666672	109.76605965610997	22.931756760194105	-26.90949017975834
15.533333333333328	104.95058842832327	39.61466025748092	-27.06446328489412
15.6	98.04318065736379	55.48959519040483	-27.218559814913487
15.666666666666664	88.80558889262534	70.15334281875045	-27.37212982082657
15.733333333333336	77.17812883734246	82.91134788715573	-27.524733011903347
15.8	63.77472675352442	94.19317923098771	-27.67916823587476
15.866666666666664	48.32617358444509	103.22670513497025	-27.836484648777894
15.933333333333328	31.85408795083663	109.61007691971605	-27.991511320221374
16.0	14.705096711261831	113.4064339632767	-28.145386144350493
16.066666666666663	-2.7296633481134904	114.64202688295364	-28.298139704255078
16.133333333333336	-20.6088871353179	113.16639052660418	-28.45447117975483
16.2	-37.51698051224821	108.60910716460495	-28.60693276903267
16.266666666666666	-54.13740077854595	101.43738850622168	-28.7645786772793
16.333333333333336	-69.52896954917674	92.15698076669224	-28.92068476444974
16.4	-82.89909519582307	80.20347477511024	-29.07625768983361
16.466666666666672	-94.74285592905312	66.71979523786518	-29.23157777377263
16.533333333333328	-103.88660025508284	51.370084464894774	-29.385906499592817
16.6	-110.20857330635363	34.119108904682264	-29.544901644087602
16.666666666666664	-114.0560521258476	16.288751762401773	-29.70327585806509
16.733333333333334	-115.24291312673427	-2.542147553452935	-29.867185668025424
16.8	-113.14236815923618	-20.044818747073975	-30.020475348469812
16.866666666666664	-108.52283383167492	-37.47385432338109	-30.1776193982896
16.93333333333333	-101.83745070920008	-53.863145035297464	-30.33163973477567
17.0	-92.3260219691881	-69.09712866142951	-30.48760884879428
17.066666666666663	-80.13315092296239	-82.9157909684406	-30.647593002941314
17.133333333333336	-66.38639840961764	-94.31368339504542	-30.802595028406117
17.2	-50.549660460529594	-103.58779813000064	-30.96193416950612
17.266666666666666	-34.016073909841	-109.84478018501335	-31.11561829933772
17.333333333333336	-16.548968419403764	-113.38700266445511	-31.27099863335282
17.4	1.161631508362234	-114.73581708034845	-31.426050591750112
17.466666666666672	19.358498968236518	-112.88302085275353	-31.585766116798624
17.533333333333328	36.86816833647936	-108.02700995635627	-31.74481784931702
17.6	53.331359223728896	-100.30889010846914	-31.90458900814659
17.666666666666664	68.34881305901922	-90.05854244158905	-32.06512320552604
17.733333333333334	81.49084181562239	-77.97375976128541	-32.2233766901037
17.8	92.49571915385172	-64.03453814287872	-32.38118521327806
17.866666666666664	101.49181735202751	-48.7790710021215	-32.53869851798505
17.93333333333333	107.76610484749358	-32.00506079711516	-32.698033184219156
18.0	111.37608343395209	-14.101341163566133	-32.860782818086484
18.066666666666663	111.84006960747911	3.9202442824335435	-33.021760751446024
18.133333333333336	109.91913985905171	21.853455658496443	-33.182977706385934
18.2	105.37008081797126	39.199051525524794	-33.34287232216242
18.266666666666666	97.64124129350353	56.16143159562563	-33.508693502836024
18.333333333333336	87.45569072964281	70.8792344235597	-33.6678086676652
