质量_A
t	y	x	angle
0.0	-71.20258716856233	-91.54105917086713	0.6610702963226707
0.06666666666666606	-64.47046278413518	-96.2102552116807	0.590375551930032
0.1333333333333321	-57.13186026536573	-100.71497102277436	0.5160001569624197
0.2	-49.45133002113289	-104.40245824288985	0.44235493133220744
0.26666666666666605	-41.44416748985827	-107.67322383990012	0.3674277635507269
0.3333333333333321	-33.21754386194766	-110.51898165749225	0.29197013428724716
0.3999999999999982	-24.60023678973539	-112.49483507047927	0.21528976073967243
0.46666666666666423	-15.514855591781725	-113.67210329857863	0.13564961143090834
0.533333333333334	-7.062170869891588	-114.47926563568234	0.061611442380852394
0.6	1.4437578883719198	-114.38068193006433	-0.012621722443528154
0.6666666666666661	10.738402760618328	-113.81722614828112	-0.09406932130740368
0.7333333333333322	19.58402413576482	-112.2098546545555	-0.1727899265222337
0.7999999999999982	28.430789144178334	-110.10916061820518	-0.2526864375330583
0.866666666666666	37.15628615229957	-107.64595056816489	-0.33236656802248266
0.9333333333333321	45.05842716467464	-104.27856905750042	-0.40786624038519514
1.0	52.79409557604981	-100.12818582711287	-0.4852210062316359
1.066666666666666	60.69287352252968	-95.48969079969123	-0.5661827108087574
1.1333333333333322	68.06277856724705	-90.01522120081103	-0.6474097352569854
1.2	74.82078839013752	-83.83979639714443	-0.7286146062963772
1.2666666666666662	81.44536268573279	-77.39221914054104	-0.8109101619726025
1.3333333333333321	87.09656487621464	-70.30997067622394	-0.8916414413550412
1.3999999999999981	92.25953144335676	-62.78633806195347	-0.9732502347539932
1.4666666666666643	97.0833962476454	-54.618166419145325	-1.058338356226721
1.5333333333333339	101.27434286045354	-46.18820339128905	-1.1429059532633856
1.6	104.7336945629279	-37.22369600608312	-1.2293075726338427
1.666666666666666	107.38101845561937	-27.825024166684614	-1.317248755788042
1.733333333333332	109.409920443484	-18.306571813924336	-1.4050111171277304
1.7999999999999983	110.56581083421429	-7.939510856830736	-1.4991113596585552
1.866666666666666	110.8716534918251	2.034116756031324	-1.589140858620177
1.933333333333332	110.09866365207267	12.502725395514801	-1.683871210585445
2.0	108.7703827366438	22.672223290084332	-1.776295042249541
2.066666666666666	105.90578058278584	33.17588763553982	-1.8743720780149635
2.133333333333332	102.00432649938853	43.294646879561526	-1.9721919765903195
2.2	97.66489652269843	52.797479060641365	-2.066392714387218
2.266666666666666	92.25648112632689	62.46036334622073	-2.1659389583055133
2.333333333333332	86.10839663510137	71.19697454651674	-2.2616840603048987
2.399999999999998	78.94422626413211	79.33129363112045	-2.358640014273479
2.466666666666664	71.02247370947293	86.63970876875334	-2.4549274594131907
2.533333333333334	62.541795330199875	93.05242313825767	-2.5498285981626063
2.6	53.31137785963756	99.29041732839693	-2.6488442304518025
2.666666666666666	43.92622929566619	104.00289856025103	-2.741963782182185
2.733333333333332	33.58302003979429	108.2605746874986	-2.8407995592555393
2.799999999999998	22.632151536699894	111.22378084908593	-2.940850284117807
2.8666666666666663	11.623690329695592	113.0020587745392	-3.0390905126579812
2.9333333333333322	-0.10274119304745	113.82935908863357	-3.1424952429214916
2.9999999999999982	-11.335908857961613	113.18818253268779	-3.2414108017024317
3.066666666666666	-22.596553970687182	111.78894145636747	-3.341041080191487
3.13333333333333	-34.0096872428569	108.78515980020217	-3.4445974819589433
3.1999999999999984	-45.16936874275211	104.89833908396832	-3.5481981309771253
3.266666666666666	-55.878867782925	99.45922343654485	-3.65347065512934
3.333333333333334	-66.08606040749487	93.18452295728258	-3.758463585488234
3.4000000000000017	-75.55112891346153	86.18449057155073	-3.86133996911337
3.466666666666666	-84.22606580798151	78.03875557028192	-3.965103293124564
3.533333333333334	-92.20996218678124	68.68977305012442	-4.072141929555848
3.5999999999999983	-99.36166852971633	58.7176604483962	-4.178651344680072
3.666666666666666	-104.89988921182317	47.42435099744881	-4.287797101472087
3.733333333333334	-109.57731611396389	35.959198814390845	-4.395299102225951
3.799999999999998	-113.06050380207489	24.485206006505962	-4.499115268524232
3.8666666666666663	-115.28318155797069	12.555353994446534	-4.603907726569902
3.9333333333333305	-115.86632716616828	0.26355397682408466	-4.710114346082123
3.9999999999999982	-116.22504793659164	-6.240328075129867	-4.7660292411154925
4.066666666666666	-115.06592246677769	-18.45973660737144	-4.871461029780319
4.13333333333333	-112.37649791521176	-30.430809736419462	-4.976840123253741
4.199999999999998	-108.40272884428964	-42.31230964309992	-5.084527232894068
4.266666666666666	-103.29436818130876	-53.32456436077604	-5.188943101873822
4.333333333333334	-96.96018831320521	-64.25748086372067	-5.297654475175553
4.400000000000002	-89.99514996991115	-74.52527736508449	-5.404032707993892
4.466666666666666	-81.3358506327329	-83.21165391936444	-5.509186417454439
4.533333333333334	-71.74843564947628	-91.49597231028787	-5.618171348642731
4.599999999999998	-61.414200115349786	-98.37129091144465	-5.725082182954262
4.666666666666666	-49.908990967670206	-104.71591469359242	-5.838421538130124
4.733333333333334	-37.8488533111788	-109.30850118294069	-5.949848732504987
4.799999999999998	-25.59659527283543	-112.49975026961732	-6.059468079815152
4.866666666666666	-12.763366766164609	-114.52391273016843	-6.172196130794741
4.93333333333333	0.32199042129445843	-114.5667456132191	-6.28599580486616
4.999999999999998	13.448746111063883	-113.39383092434122	-6.40123594699259
5.066666666666666	26.200921317396705	-110.85398290634924	-6.515281206663301
5.13333333333333	37.92090400744246	-107.03371885755263	-6.623676229205913
5.199999999999998	49.618491243843664	-101.6297715892278	-6.737370972603234
5.266666666666666	60.735903955452386	-94.88539842919471	-6.852567646091838
5.333333333333334	70.94852839966484	-86.99311544402946	-6.967345225031911
5.400000000000002	80.19121349070497	-77.83035228468628	-7.083522479466231
5.466666666666666	88.54720618347096	-67.68490513312094	-7.201332173710262
5.533333333333334	95.45298406091524	-56.61850788605756	-7.3186097025798045
5.599999999999998	101.34996126158012	-44.86729491880186	-7.437217694779202
5.666666666666666	105.79538157067896	-32.66994850203963	-7.554468237793666
5.733333333333334	109.19732933527234	-19.47763029613253	-7.677467077495113
5.799999999999998	110.57160925633457	-6.554937531925077	-7.794768651002177
5.866666666666666	110.4233471985101	7.261131626223971	-7.9196443143855335
5.93333333333333	108.89844596112539	20.216651227516593	-8.037538752100504
5.999999999999998	105.3464326192418	33.37895353056973	-8.160824020144041
6.066666666666666	101.01784206409843	45.73807552418663	-8.279138571253723
6.13333333333333	95.25012815708351	57.73592256021544	-8.39891136681624
6.199999999999998	87.76355581387702	69.1452340975273	-8.521275044990226
6.266666666666666	78.87540905525157	79.4492675813288	-8.643004349307027
6.333333333333334	68.93837250551064	88.66055323499592	-8.763874204804335
6.400000000000002	58.18682041561442	96.10433259790881	-8.880357297591116
6.466666666666666	46.16908819176183	102.91454466117813	-9.00307575354816
6.533333333333334	33.325360293054246	108.04825661339311	-9.125604968580047
6.599999999999998	19.496180731296818	111.78329147246114	-9.252104326078628
6.666666666666666	5.538041938047854	113.4995914478996	-9.376023131478071
6.733333333333334	-8.92005976688597	113.11207021498086	-9.503475462134755
6.799999999999998	-23.778687099456647	111.13491297074626	-9.635562105310543
6.866666666666666	-38.826421752175065	107.04007758156791	-9.772746358013498
6.93333333333333	-53.43003465171728	101.04498444074017	-9.911179487971404
6.999999999999998	-67.27329052640061	92.99277906862977	-10.05105294103121
7.066666666666666	-79.72615268692266	82.58619170817434	-10.192557359018867
7.13333333333333	-90.66970053416867	71.26567727609205	-10.329433240763583
7.199999999999998	-99.20151134308867	59.32333972391126	-10.456620466179297
7.266666666666666	-106.93615307532968	46.06083080907166	-10.588858558821334
7.333333333333334	-111.55436825480751	33.06525351476847	-10.70741906945923
7.400000000000002	-114.50809514281855	18.159992811715426	-10.838292820070592
7.466666666666666	-115.96169228701365	3.822140529106889	-10.962625843570065
7.533333333333334	-115.9763389071868	-10.689884325572223	-11.087487556850094
7.599999999999998	-114.0671891946115	-24.576075448210247	-11.207783035065757
7.666666666666666	-110.3310896970413	-38.40082926400595	-11.33051161389196
7.733333333333334	-104.34157804091387	-51.7954464790659	-11.456339959250027
7.799999999999998	-97.0608958916896	-63.77484678602622	-11.576896706006863
7.866666666666666	-88.1359446451645	-75.67224490147527	-11.705031613503486
7.93333333333333	-78.0237718267997	-85.69882857021838	-11.827816575882366
7.999999999999998	-66.13652151717747	-94.8056460698869	-11.95725647550261
8.066666666666666	-53.89411728135224	-102.25738621174725	-12.081322797290294
8.133333333333331	-40.14484371597564	-107.85269061791035	-12.210040119614437
8.199999999999998	-25.64411475277666	-111.89094328779078	-12.341073114277524
8.266666666666666	-10.655951541730019	-113.617470054389	-12.47285619703627
8.333333333333334	4.529864294385561	-113.64845679617514	-12.606208090671734
8.400000000000002	19.443265460149178	-111.53945862416361	-12.738953861782658
8.466666666666667	34.27951988532914	-107.40166207550288	-12.875321585187535
8.533333333333333	47.864846211733266	-101.8252598135245	-13.005787598827634
8.599999999999998	61.157895076746854	-93.95987492657667	-13.143373871664998
8.666666666666666	73.0161516716978	-84.31394005472197	-13.28008237157001
8.733333333333334	83.00885489534448	-73.62329344206677	-13.41161825718997
8.799999999999999	92.26195872104722	-60.92979522285276	-13.553515373735184
8.866666666666665	99.53056130204254	-48.076755031814	-13.687183126241683
8.93333333333333	105.45917334764226	-33.32279405174671	-13.8311165157381
8.999999999999998	109.10179482592366	-18.096341499728567	-13.972796828011452
9.066666666666666	110.4039977690993	-2.101794899448066	-14.118131932577276
9.133333333333331	109.71617687406547	13.89193173947848	-14.263113727831247
9.199999999999998	106.68653421305703	29.220324119853274	-14.404500458947552
9.266666666666666	101.51759698735509	44.097045805274604	-14.546954238915657
9.333333333333334	94.79309576990158	58.679234013505095	-14.691457611142944
9.400000000000002	85.41286712352235	72.07773077867802	-14.838094003457055
9.466666666666667	74.57893892606285	84.13277512423412	-14.98268871665649
9.533333333333333	61.69093939654681	94.44648725941335	-15.129352952475998
9.599999999999998	47.22373728118214	102.5849389607261	-15.276545660239178
9.666666666666666	31.95246872646203	108.63446606746999	-15.421902039269217
9.733333333333334	15.309846456447076	112.33156018492588	-15.572506290029189
9.799999999999999	-1.9460681248178844	113.58082064423303	-15.725095365727727
9.866666666666665	-19.388254627849847	112.2582838644758	-15.878987214587626
9.93333333333333	-36.415433815969436	108.00275250293663	-16.033164050619902
9.999999999999998	-52.90514458054872	101.17656131106065	-16.189761979398867
10.066666666666666	-67.96104837799408	92.4462707665885	-16.341886626914892
10.133333333333331	-81.55914180473633	80.85409579939898	-16.497702466516735
10.199999999999998	-93.11947689174053	67.07872129342132	-16.654505323979414
10.266666666666666	-102.83963992781037	51.961660354452135	-16.81090584370092
10.333333333333334	-110.06683594764877	35.14268929050428	-16.96970537316038
10.400000000000002	-114.58417639949312	17.76337726715866	-17.12495917679979
10.466666666666667	-116.15510240258277	-0.42737547791870156	-17.282438929878904
10.533333333333333	-114.77791195033365	-18.58610264912801	-17.43929709300174
10.599999999999998	-110.43701840424774	-36.094942683221404	-17.594652417500843
10.666666666666666	-103.43349329473267	-53.23705616465685	-17.75409668195158
10.733333333333334	-93.69948398780207	-68.96695962403788	-17.913268984168976
10.799999999999999	-81.25668532512555	-82.66022589773269	-18.07272006121728
10.866666666666665	-67.33993102012005	-94.11298292884379	-18.228488143180805
10.93333333333333	-51.25650604207726	-103.50892252162765	-18.389764311003578
10.999999999999998	-34.121527730010484	-109.90986402720256	-18.54853967061992
11.066666666666666	-15.970996416182743	-113.55158940677012	-18.7098228312208
11.133333333333331	2.2372416609803167	-114.2434463624108	-18.86913652598795
11.199999999999998	20.778887199511928	-111.63232467442612	-19.033586674778608
11.266666666666666	38.60796499097273	-106.09660671783746	-19.198554839818048
11.333333333333334	55.142183477462595	-98.58696937386918	-19.359530447850346
11.400000000000002	70.20451578910183	-87.88332475769283	-19.52358776156421
11.466666666666667	83.12063507245716	-74.46407566733222	-19.68983166624018
11.533333333333333	93.78316320273484	-59.51589757696928	-19.85487094932332
11.599999999999998	101.79778995836955	-43.141413527275006	-20.01950252998013
11.666666666666666	107.29380089760821	-25.37488487249192	-20.18812013997472
11.733333333333334	110.19759346011347	-6.84537668927436	-20.35831285290953
11.799999999999999	109.67959926332719	12.099779188798095	-20.530227269993365
11.866666666666665	106.10134553168541	30.54794882019661	-20.700683429646872
11.93333333333333	99.89664886517949	47.967883797921615	-20.8680145287873
11.999999999999998	90.54390125486611	64.27960479769405	-21.03770993200357
12.066666666666666	79.06977812945684	79.04899702357926	-21.20561898454456
12.133333333333331	65.61064635927505	91.09883888605674	-21.366984691070176
12.199999999999998	49.80037522951352	101.27905497847593	-21.53415134594637
12.266666666666666	32.2436977125833	108.2861338562264	-21.701744541398057
12.333333333333334	13.576307430136467	112.71791480890494	-21.871281005172026
12.400000000000002	-5.440279195099947	113.38700937253276	-22.03909154825884
12.466666666666667	-24.06157044336328	111.1085975846841	-22.204414407496603
12.533333333333333	-42.13808130649727	105.98619622103189	-22.369567734498432
12.599999999999998	-60.1461430162592	97.32400935757465	-22.544697634546264
12.666666666666666	-76.3185597537979	86.22293521422222	-22.715687544613616
12.733333333333334	-90.43573141633442	71.88466851736968	-22.890339718966295
12.799999999999999	-101.95284751126815	55.38809236159824	-23.064282077715237
12.866666666666665	-110.39864779500567	36.06349018934276	-23.24620685644099
12.93333333333333	-115.2468330308368	15.94911559221515	-23.424427453266443
12.999999999999998	-116.26759914273975	-5.270305118717658	-23.607242989455337
13.066666666666666	-113.37501643501173	-25.33978213820336	-23.781835079270127
13.133333333333331	-107.6064946159047	-44.57890626101545	-23.954698213022105
13.199999999999998	-98.34013385328558	-61.89578524441794	-24.12370568520362
13.266666666666662	-86.48749420465424	-77.40971367065282	-24.29201256279037
13.333333333333334	-72.1385886367143	-90.52237780394847	-24.45988456872094
13.400000000000002	-55.97570921088095	-101.18315734218567	-24.627435545147442
13.466666666666667	-37.479208069202286	-108.97080765877689	-24.801476976260428
13.533333333333333	-18.077908618911124	-113.27677458743636	-24.97448517128381
13.599999999999998	1.3798377722623627	-114.15128576279648	-25.144828438809675
13.666666666666666	21.301781279907345	-111.68436381736666	-25.32120956889429
13.733333333333334	40.01527281101335	-105.6955560451342	-25.494655511332112
13.799999999999999	57.85736410526556	-96.71697964696426	-25.67184579522279
13.866666666666665	73.17323778828609	-84.87479804517073	-25.844236233155456
13.93333333333333	86.37768446830205	-70.32388311087806	-26.020231462239607
13.999999999999998	97.09201988520931	-53.744725273517986	-26.197977336360886
14.066666666666666	104.49235602478325	-35.83545137071718	-26.373158844017258
14.133333333333331	109.62890527643208	-16.225829578019727	-26.556597460808426
14.199999999999998	110.62102096340163	4.059649813291514	-26.740219813031217
14.266666666666662	108.14473254645213	23.93390669167269	-26.92134052971258
14.333333333333334	102.51844490553026	42.704766496106174	-27.098235150000477
14.400000000000002	93.5223315204546	60.804369198377174	-27.280024420216364
14.466666666666667	81.36279368188366	76.71547075976565	-27.459545310632056
14.533333333333333	66.98873960124547	90.31876225770435	-27.636170873067226
14.599999999999998	49.31810655837489	101.3171901945662	-27.821326675912978
14.666666666666666	30.453448017270148	109.45147653379473	-28.002960776682148
14.733333333333334	9.518014698990783	113.26261945817583	-28.190495946933925
14.799999999999999	-10.99536565662288	113.11000488569317	-28.371238895051167
14.866666666666665	-31.820572573171148	109.30712595895312	-28.557616367842215
14.93333333333333	-51.88191628963909	101.89872041243262	-28.745276093056027
14.999999999999998	-70.16036563819989	90.17529846416625	-28.935543015273264
15.066666666666666	-86.31160890323804	75.87373633458157	-29.124001091394977
15.133333333333331	-99.3973977122198	58.28872369659581	-29.314755087729342
15.199999999999998	-108.72023971967235	38.75402534740789	-29.502715203895026
15.266666666666662	-114.37928524989002	17.311606473827112	-29.694917652056986
15.333333333333334	-115.54256118627995	-4.258408322094908	-29.881969290015906
15.400000000000002	-112.63861786498182	-26.200581207984953	-30.073673624394498
15.466666666666667	-106.01312902399582	-47.27054413724437	-30.26456375846621
15.533333333333333	-95.43648583616846	-66.41017841545641	-30.45307044499274
15.599999999999998	-81.01760497371492	-82.98187147405798	-30.642505072810604
15.666666666666666	-63.65970249631505	-96.36312612500836	-30.83211965198588
15.733333333333334	-44.318432678184536	-106.39258374199011	-31.02123000758282
15.799999999999999	-23.00479795624892	-112.57394507690736	-31.214349141329528
15.866666666666665	-0.9746731933653336	-114.41019603418152	-31.4074076306856
15.93333333333333	21.121294110450663	-111.82439890471693	-31.60260643478211
15.999999999999998	42.27390323998384	-104.88702977862789	-31.799052777783757
16.066666666666666	61.13899575385199	-94.80898914393373	-31.98868341783264
16.13333333333333	77.38509581792755	-80.56477100675141	-32.181196503988204
16.2	91.31523609366945	-63.70861305208956	-32.37755712247675
16.266666666666662	102.19239985667946	-44.991276975640346	-32.5719977624162
16.333333333333336	108.41703970256617	-23.198439882054515	-32.775927469908574
16.4	110.55178118225263	-1.8465627481924116	-32.97002126793028
16.466666666666665	108.73839770331165	20.16982048009919	-33.17012779500566
16.533333333333335	103.04638534278024	41.133522516895425	-33.366517677025286
16.6	93.01345311908085	61.08714320042719	-33.56783281446087
16.666666666666664	79.89641298801257	78.62120963424405	-33.764076647013965
16.733333333333334	63.50586813311179	93.10413628619182	-33.95891133316697
16.8	44.34774097922559	104.07023431043473	-34.15468943648172
16.866666666666664	23.741385747062623	111.2380020685901	-34.347245358508395
16.93333333333333	1.8333129486061353	113.8473250569487	-34.54141732232609
17.0	-20.06668604788365	111.99866651860935	-34.73480706443754
17.066666666666663	-42.171265234987686	105.75586167725015	-34.93695661604508
17.13333333333333	-62.29170227880422	95.97544978535012	-35.133217752844395
17.2	-80.20538823452375	83.30848079295248	-35.32394208103943
17.266666666666666	-95.35390308600893	66.37778772364555	-35.52019812536593
17.333333333333336	-106.04697239293967	45.88273821869501	-35.71997109634295
17.4	-112.75692253684042	22.553393282547347	-35.930902826593304
17.466666666666665	-115.76399744185233	-0.07017633834908565	-36.1289217179628
