质量_A
t	y	x	angle
0.0	-97.90163746941732	62.78925290713107	-1.000525731183104
0.06666666666666606	-107.26291823318786	45.6706866321731	-1.1682629777743643
0.13333333333333303	-113.57442593873077	27.05997305509095	-1.3368994758041093
0.1999999999999991	-116.42939553965505	6.515487556306425	-1.5148937865359828
0.266666666666667	-117.03460393985495	-3.313890433428469	-1.5991042382387068
0.33333333333333304	-114.47532428081456	-23.360785231694308	-1.7721006390458287
0.3999999999999991	-108.30898959551484	-42.97442103402	-1.9485204141960208
0.46666666666666606	-99.23720504662504	-61.46314149244222	-2.125326613577982
0.533333333333333	-86.95106127587349	-77.46045333224743	-2.298533762245728
0.6	-72.23527181799307	-91.06292078432193	-2.4709837678370326
0.6666666666666661	-55.12849929288484	-102.18403017339097	-2.6468449579854543
0.7333333333333322	-36.78329985484277	-109.99669977460121	-2.8188791076524944
0.8	-17.244113279816133	-114.62432006147151	-2.9922721551396854
0.866666666666666	3.5087547807232795	-115.50138951747476	-3.1719617776318447
0.933333333333333	23.725599939972767	-112.71822365117373	-3.3490502062652263
1.0	43.351699305156785	-106.63539271335799	-3.5277253975133434
1.066666666666666	60.935887635980066	-97.03359978236176	-3.7023373987880692
1.133333333333333	77.3809384825164	-84.55506263417738	-3.8827175479022946
1.199999999999999	90.84270817917593	-69.52670890883087	-4.059134353214425
1.266666666666667	101.05895308865581	-53.75434840781372	-4.223539818251205
1.333333333333333	109.07875506885387	-32.36820979395236	-4.423924171813498
1.399999999999999	113.15516267084206	-12.438789095511083	-4.602901742733637
1.4666666666666661	112.99088946836503	8.349651462396878	-4.786151588480321
1.533333333333333	110.04995674019995	28.131772060663252	-4.962656862534235
1.5999999999999992	102.91615713540989	47.67840258668025	-5.146226754216349
1.666666666666667	93.34999877848975	65.89375296729236	-5.327049331069147
1.733333333333333	79.84959489765754	81.44638536620414	-5.507686574037333
1.7999999999999992	63.934919386593606	94.86681279651089	-5.69016145658716
1.866666666666667	46.04574667438976	104.9402730938034	-5.869700581411007
1.9333333333333331	26.62371103657449	111.61304579487637	-6.049025208323726
1.9999999999999991	5.946827254389177	115.067606328593	-6.231550087079674
2.066666666666665	-14.665205515038792	114.30039716100464	-6.410792200472964
2.133333333333333	-35.53492231233383	109.88286033110126	-6.595959537836251
2.200000000000001	-55.03008696784957	101.86909359340575	-6.778476463823249
2.266666666666667	-72.5633039648452	90.4383559362459	-6.959358133730025
2.333333333333333	-88.16504326651864	75.86317931348117	-7.143441786071123
2.399999999999999	-100.90922375908656	58.11871749224974	-7.331433324462171
2.466666666666665	-110.58480256222094	36.822822734032115	-7.532546710459674
2.533333333333333	-115.46745099775387	14.8097137791558	-7.726419297156552
2.599999999999999	-116.30655666442897	-7.881639710087484	-7.9216442685758395
2.666666666666667	-112.89700747337463	-29.625425876158033	-8.11060677654592
2.733333333333333	-105.27305984582665	-49.583677056037004	-8.294161785878758
2.799999999999999	-94.6019600726853	-67.89972674121441	-8.476515491149376
2.866666666666667	-80.50376967149134	-84.17916018157712	-8.661694074071958
2.933333333333333	-63.748859691639495	-97.17191912940666	-8.844167011542092
2.999999999999999	-44.86804443686117	-106.7371478200746	-9.02684385503537
3.066666666666665	-25.001784324275718	-112.84991077395557	-9.206750652169472
3.133333333333333	-3.509103612973263	-115.60575218970894	-9.394433220860295
3.200000000000001	17.80162182974766	-113.79072560610416	-9.579961890960398
3.266666666666667	38.78890907643597	-108.38626672335386	-9.768452493887786
3.333333333333333	57.94508713406333	-98.86894407922341	-9.954899108078516
3.399999999999999	74.94260851588172	-86.23481220149574	-10.140229714038297
3.466666666666665	89.63648137696248	-70.82588476129308	-10.32687098428757
3.533333333333333	101.05895308865581	-52.86325929890279	-10.51362319230435
3.599999999999999	110.86093328667562	-31.477120685041427	-10.718921889819786
3.666666666666667	113.23877595727038	-10.285003451541115	-10.904997000122242
3.733333333333333	112.68655816838839	11.381876948341187	-11.09623763671215
3.799999999999999	108.12718811529464	33.15603945526982	-11.293110948697715
3.866666666666667	99.92573132478913	53.40410450917966	-11.486391226748655
3.933333333333333	88.11410006970448	71.77980332243965	-11.67916851970807
3.999999999999999	72.4311192180727	87.94755047882882	-11.87742099044523
4.0666666666666655	53.49504941545331	100.70450644729203	-12.078069342299633
4.133333333333333	33.16954859344389	109.44432705617578	-12.272097545766668
4.200000000000001	10.594755522681567	114.30704176049449	-12.473947859922662
4.266666666666667	-11.93725250984437	114.75076348788775	-12.67002543055819
4.333333333333333	-34.72680209641328	110.13470675051258	-12.871815311388607
4.3999999999999995	-55.97465790245349	101.43031187552629	-13.07063563288127
4.466666666666665	-76.11585977287166	88.20303521640585	-13.2783417694952
4.533333333333333	-92.08413686511483	71.19982891030804	-13.47897987019898
4.599999999999999	-104.36873836104667	51.57188828837184	-13.67822508963658
4.666666666666667	-112.9759266374416	28.928975865800794	-13.886489939978956
4.733333333333333	-116.37634571027081	5.49139901595413	-14.09001535931679
4.799999999999999	-114.94345559222654	-18.96871894557762	-14.300719380994792
4.866666666666667	-108.93594479088858	-42.08037495905114	-14.505794847082306
4.933333333333333	-97.61661230624111	-63.493335935433834	-14.713848438424035
4.999999999999999	-82.77944700814385	-82.56183616507201	-14.921248973980573
5.0666666666666655	-63.934088244448844	-97.05921952267795	-15.125487865800038
5.133333333333333	-42.73145614934958	-107.54116847005298	-15.329743677038039
5.200000000000001	-19.513814283429042	-113.74036859588591	-15.538052907865914
5.266666666666667	4.386007740795435	-115.4165014949865	-15.745946556350857
5.333333333333333	28.610014299695763	-111.37914651588835	-15.959397734561298
5.3999999999999995	51.03067740433619	-102.69744127138233	-16.16913029288411
5.466666666666665	71.00675281585893	-89.58424886056741	-16.37819131064308
5.533333333333333	87.7279094042434	-73.01350745644936	-16.58464783894785
5.599999999999999	100.39754900028936	-54.28395669676797	-16.783092218585576
5.666666666666667	109.07875506885387	-29.694942467219676	-17.01296675464308
5.733333333333333	113.28502276474512	-6.393134111176323	-17.22238532799258
5.799999999999999	111.81457002668401	17.079114282022374	-17.43033303249235
5.866666666666667	105.64272992667122	40.35874922652761	-17.64367973500781
5.933333333333333	95.20931465845968	61.74695800966151	-17.854107096272582
5.999999999999999	80.63492907075135	80.40637331394191	-18.062738522206367
6.0666666666666655	61.78133958490719	96.27080609399195	-18.279005542228088
6.133333333333333	39.70929279468385	107.5111228258304	-18.49574736582415
6.200000000000001	15.82550144672939	113.99728172042319	-18.711614051507198
6.266666666666667	-8.325367343074845	114.84151341813913	-18.92192373023341
6.333333333333333	-32.32790564077129	111.10255070947346	-19.132711152466022
6.3999999999999995	-55.35265920149652	101.77828591199864	-19.3476692674583
6.466666666666665	-76.15512621283108	87.79149910451338	-19.56409631873052
6.533333333333333	-93.18320604356438	69.21466107681226	-19.781487704106368
6.599999999999999	-106.23637062985415	47.488242909171504	-19.999991332058535
6.666666666666667	-113.40451558839584	23.935472867278122	-20.21234237641258
6.733333333333333	-116.03719557599823	-1.996511315537873	-20.437556338155584
6.799999999999999	-113.19564244492119	-27.4559682245183	-20.65830999606533
6.866666666666667	-103.81579715461646	-51.917617555353445	-20.88407474855033
6.933333333333333	-89.6089176080867	-74.14989012588353	-21.111628146193837
6.999999999999999	-70.88632574534938	-91.90263890845858	-21.334141829234955
7.0666666666666655	-49.297290762840134	-105.07639860211634	-21.55247867609698
7.133333333333331	-25.647280572019213	-113.12069326051824	-21.76819293311607
7.200000000000001	-1.2168111029851616	-115.46778440394678	-21.980610864810963
7.266666666666667	24.38724594361213	-112.82420743404691	-22.20402615027899
7.333333333333333	48.18095275225835	-104.51898229760945	-22.423094223657426
7.3999999999999995	69.05457661952403	-91.61276187018302	-22.637055511420606
7.466666666666665	86.85018505029905	-74.29148506309116	-22.854325286619126
7.533333333333333	100.47294296991674	-53.283343700279374	-23.074332393939503
7.599999999999999	109.35041439047211	-30.678243215331577	-23.288426388624927
7.666666666666667	113.339905577389	-5.444273593715252	-23.513946872765402
7.733333333333333	112.17003255505631	19.185505089368917	-23.731345177160406
7.799999999999999	104.72786831070528	43.82394957864631	-23.95825924234576
7.866666666666667	92.82981907505211	65.3009597331361	-24.1749812797449
7.933333333333333	76.98584803865731	84.16826284726426	-24.391882201219754
7.999999999999999	57.3022230315006	99.44055261276412	-24.60997103328156
8.066666666666665	33.45335952343896	109.9248050933777	-24.837317176209528
8.133333333333331	8.095333948337725	115.04341044056855	-25.062489383428765
8.2	-17.67574877210643	113.94302596317652	-25.28664248086042
8.266666666666667	-42.282358318734964	107.72643498977686	-25.506763263879897
8.333333333333332	-65.28844148620112	96.03896873318422	-25.729789306056535
8.4	-84.79444924906636	79.67780008115756	-25.94923886034847
8.466666666666665	-100.48247719262656	58.51552081343971	-26.17620044246613
8.533333333333331	-111.24886842426633	33.87328314731303	-26.407973880943004
8.6	-116.02575133233711	8.082708050209249	-26.63398686586855
8.666666666666668	-114.66140300282893	-18.889209013810387	-26.866810116276763
8.733333333333333	-107.93312717470587	-44.48383325833424	-27.094467616169027
8.8	-95.05355976705675	-67.46779692378482	-27.320801931317458
8.866666666666667	-76.80539352076119	-87.34859877796316	-27.553075148987578
8.933333333333332	-55.07890012236078	-102.49256345413846	-27.781220382421978
9.0	-30.047044785090634	-111.4676250987643	-28.011033603742675
9.066666666666665	-3.986947610539687	-115.28690845799315	-28.23976482865497
9.133333333333333	22.687287147011943	-112.886325562318	-28.472666407392396
9.2	47.787307525051006	-104.59175436897158	-28.70290575315507
9.266666666666667	70.63211671764782	-90.4831907670457	-28.937139550660216
9.333333333333332	89.12879540549181	-71.48959386550564	-29.169114274806343
9.4	102.76719021687188	-48.57442185527657	-29.40358900181035
9.466666666666665	110.7943979271596	-23.419987822710027	-29.63681435458448
9.533333333333331	113.2779284255488	2.70526312181255	-29.869007314159038
9.6	109.86169143538848	28.498991146193703	-30.09894358335837
9.666666666666664	100.691053591475	53.59692117431291	-30.334275520846045
9.733333333333333	85.51634340918338	75.8761478012857	-30.570867881897446
9.799999999999997	65.98368565608132	93.4498262317777	-30.801127163888697
9.866666666666664	42.5687276546206	106.94724792849001	-31.037115434106536
9.933333333333332	16.54160329386434	114.21007743427185	-31.272091834099385
10.0	-9.895592533926106	114.9450956224548	-31.501804526168154
10.066666666666668	-37.179183940256166	109.67004386758322	-31.74277688890659
10.133333333333333	-61.86514753376184	98.22393811557095	-31.97799714570678
10.2	-83.0779537096654	81.15046040192624	-32.21306082195059
10.266666666666664	-99.70549093753868	59.60095278199856	-32.44794467078089
10.333333333333332	-110.81252290985537	34.805628292650226	-32.682385814170544
10.4	-116.17389484762896	7.838964392750995	-32.919348864506496
10.466666666666665	-114.56896693220608	-19.892044623617267	-33.15863414205252
10.533333333333331	-106.55642377135689	-47.233785125731174	-33.40397011532535
10.599999999999996	-92.74294647487739	-70.74032419776222	-33.638338532968135
10.666666666666664	-73.20899287114287	-90.69212996007514	-33.878388004334454
10.733333333333333	-49.325869329976626	-105.30305399403119	-34.119454674401865
10.799999999999997	-22.18393662138294	-113.63628046864756	-34.36472515010097
10.866666666666664	6.385454980431973	-115.59852971323426	-34.61270131249009
10.933333333333332	34.33016022094273	-109.98292289067967	-34.8600768039345
11.0	59.2666800160556	-98.03908608573943	-35.101256277661854
11.066666666666668	80.46217488968853	-80.97537589506851	-35.33973841914797
11.133333333333333	96.9477395015848	-59.67017086237661	-35.57658554581068
11.2	107.78364150127402	-34.84472957538719	-35.81563643889384
11.266666666666664	112.9801037723447	-8.058791618661644	-36.05710682056376
11.333333333333332	111.78102326492137	19.919478966673296	-36.30466527112933
11.4	103.82079966791355	45.89594240601514	-36.54455436129477
11.466666666666665	89.48984261400653	69.69662867247348	-36.79000878131939
11.533333333333331	71.06451102001404	88.7574704009387	-37.023968901909775
11.599999999999996	48.06909604503073	103.63042383030984	-37.26479915027675
11.666666666666664	22.231179164566697	112.68962623937637	-37.50433499774166
11.733333333333333	-5.964686428102027	115.1810298385642	-37.75085094566765
11.799999999999997	-33.60918223111355	110.57641799339603	-37.994184234467504
11.866666666666664	-59.77029586851529	99.1599642927647	-38.24156298728256
11.933333333333332	-81.65256649634773	82.33811308759209	-38.48032963110518
12.0	-99.18915824639487	60.82242023557387	-38.71984200462618
12.066666666666668	-110.88698841632993	35.01611860999947	-38.96403606465217
12.133333333333333	-116.29039074860032	6.728878720813782	-39.212109893624934
12.2	-114.47396907146265	-21.601477083269856	-39.45641712974716
12.266666666666664	-105.70133996586026	-48.94241288116905	-39.703541128959664
12.333333333333332	-90.4576653896853	-73.21773299920892	-39.95036326922756
12.4	-69.82597547024932	-93.14556306642339	-40.197431521185386
12.466666666666665	-44.511850089230734	-107.2475090290211	-40.44730145379851
12.533333333333331	-16.654137753540567	-114.83191112638042	-40.69667813263693
12.599999999999996	12.507982223809563	-114.82445895579394	-40.949208017762764
12.666666666666664	39.85380293021524	-108.01999797191525	-41.19415910768569
12.733333333333333	65.11428758074032	-94.1830523755118	-41.445607463760865
12.799999999999997	85.91877417609828	-75.07584712593757	-41.69335072732188
12.866666666666664	101.23429998332438	-51.21941069800937	-41.94310520781291
12.933333333333332	110.960381603256	-23.493139937019578	-42.202856604774816
13.0	113.1763467535435	5.091697337230244	-42.45645956638228
13.066666666666668	108.28238428421935	33.548771559844454	-42.711948360944554
13.133333333333333	96.50598873896081	59.79032448878547	-42.966171727994926
13.2	79.20906269887348	81.58708593497954	-43.21168696473314
13.266666666666664	56.7281495130311	99.49986630823764	-43.46412830150482
13.333333333333332	29.665651285195622	110.66210778103846	-43.72038117231834
13.4	1.3231872374286695	115.31581058608049	-43.97082318876356
13.466666666666665	-28.027068503900068	112.12814762438052	-44.22723410938643
13.533333333333331	-54.932469986557294	102.08692127986637	-44.47595438570544
13.599999999999996	-78.57667091305609	85.57088077213734	-44.72511178675921
13.666666666666664	-97.49649890017133	63.76738620673905	-44.9738778519243
13.733333333333333	-110.38751308208123	37.431754640480676	-45.22616722179373
13.799999999999997	-116.22185906390234	8.68801102419161	-45.47847858148911
13.866666666666664	-114.63255562439542	-20.759588638836703	-45.73224858764318
13.933333333333332	-106.36221950872675	-48.687877228469006	-45.98237802401481
14.0	-90.14215377906146	-73.51942758176642	-46.237271077274755
14.066666666666668	-69.03745071459787	-93.58877299990831	-46.48832795148433
14.133333333333333	-42.91649858817789	-107.7040598425433	-46.74470579704591
14.2	-14.504719297260067	-115.00143226671389	-46.99842587003126
14.266666666666664	15.513076520934305	-114.43189634739224	-47.25863437699695
14.333333333333332	43.62893732930945	-106.08175756996638	-47.51407937244194
14.4	69.02719367556472	-90.76110038116781	-47.774100686035375
14.466666666666665	90.00562331524463	-69.76131498836071	-48.03532777406005
14.533333333333331	104.60631114963587	-44.324691231675615	-48.29389281889173
14.599999999999996	112.3031448555572	-16.077449000273873	-48.55249114746711
14.666666666666664	112.76799671046717	13.086405229370712	-48.810216521673325
14.733333333333333	105.26294231081204	41.16206285206681	-49.06744493115926
14.799999999999997	92.05820069546155	66.12003972762795	-49.31755023090845
14.866666666666664	73.23493364968829	87.29746992810306	-49.56746061407181
14.933333333333332	48.597132181983966	103.87278111722162	-49.827882036323274
15.0	20.783169128329178	112.78256734260208	-50.08325040481295
15.066666666666668	-8.113421034964972	114.938791288316	-50.33595462090437
15.133333333333333	-36.998800305690224	109.37179011087915	-50.59168257916084
15.2	-63.549166117322216	96.83735939203302	-50.84623627758514
15.266666666666664	-86.11911544977181	77.96882113232186	-51.100510116824964
15.333333333333332	-103.22751153128809	53.564772868881164	-51.35762562029318
15.4	-113.29622039419053	25.88158245258569	-51.611690896134945
15.466666666666665	-116.05956756457488	-4.298740597385176	-51.873300948784696
15.533333333333331	-111.67588762020966	-33.419288629408584	-52.127049658453195
15.599999999999996	-99.14638160240281	-60.98266972142551	-52.387710694724106
15.666666666666664	-80.78797401228746	-83.7369476330548	-52.639599204273104
15.733333333333333	-56.01665944454987	-102.15907184056346	-52.90551664283715
15.799999999999997	-27.514885044198877	-112.61228139499804	-53.16743726203982
15.866666666666664	2.1961878322227903	-115.6075025174332	-53.42606975802034
15.933333333333332	32.418703885895525	-110.21779372039578	-53.693140796537435
16.0	59.17607475730631	-98.0839595970258	-53.949932662933655
16.066666666666666	81.96581683772604	-79.17650246228914	-54.20978117874324
16.133333333333333	99.60118832845512	-54.849740228770315	-54.47449584332284
16.2	110.68692034650951	-26.626501938038018	-54.741799958289214
16.266666666666666	113.00797253282997	3.4652916643301523	-55.008525966645024
16.333333333333332	108.28090104721048	33.013559633215664	-55.27380668489131
16.4	96.36688226928266	60.03265071162673	-55.535001976204995
16.466666666666665	78.31448598432291	83.00450282753854	-55.79233435148547
16.53333333333333	53.37569691406054	101.08881947971008	-56.0628656888656
16.599999999999998	24.974536551493543	111.9650159523078	-56.329203839846585
16.666666666666664	-5.132665368006542	114.7814165401362	-56.593354862334195
16.73333333333333	-35.19761176756799	110.38680487397073	-56.857333588692505
16.799999999999997	-62.80187461770913	97.11149190626816	-57.12271870300421
16.866666666666664	-85.69228143470252	78.37150749864463	-57.37865785797683
16.933333333333334	-103.32310707574868	53.41208134172598	-57.64235471564619
17.0	-113.50252434288734	24.25551514378367	-57.90893060886992
17.066666666666666	-116.15087989365963	-6.135896957375053	-58.17224198437394
17.133333333333333	-110.44925651703636	-36.71718499523786	-58.44040581719559
17.2	-97.27704845806477	-64.31820493982082	-58.703662657378544
17.266666666666666	-77.52628623172257	-86.80254447906009	-58.96125177559382
17.333333333333332	-51.602134317642026	-104.23189342601859	-59.230564189831654
17.4	-22.16117897787592	-113.99611230470305	-59.49825239706713
17.466666666666665	8.710522276261258	-115.53548061357742	-59.765510675661474
17.53333333333333	38.83199313159605	-108.642913694355	-60.033537008624464
17.599999999999998	65.34365807652705	-94.13315017704122	-60.29705752265055
17.666666666666664	87.46978899411863	-73.56518794148451	-60.56179017757194
17.73333333333333	103.54383117426153	-47.000950346518266	-60.83494505155133
